Wavelength [nm]	Wavenumbers [1/cm]	from clipboard (1)
175.355	57027.17	-105.3
175.932	56840.24	1.345E4
176.508	56654.52	2950
177.085	56470.02	-7587
177.662	56286.71	-2856
178.239	56104.59	344.6
178.815	55923.64	-1032
179.392	55743.86	-1011
179.969	55565.23	-1875
180.545	55387.74	-1672
181.122	55211.38	-911.5
181.699	55036.14	-489
182.276	54862.01	412.9
182.852	54688.97	386
183.429	54517.03	-2028
184.006	54346.16	-2915
184.582	54176.36	2680
185.159	54007.62	9065
185.736	53839.93	7138
186.312	53673.27	7821
186.889	53507.65	7175
187.466	53343.04	7915
188.043	53179.44	9039
188.619	53016.84	4.862E4
189.196	52855.24	9353
189.773	52694.61	6421
190.349	52534.96	6151
190.926	52376.28	7484
191.503	52218.54	7727
192.080	52061.76	7771
192.656	51905.92	7308
193.233	51751.00	7725
193.810	51597.01	7945
194.386	51443.93	8311
194.963	51291.76	8074
195.540	51140.48	9247
196.117	50990.10	1.042E4
196.693	50840.59	1.017E4
197.270	50691.96	1.061E4
197.847	50544.20	9193
198.423	50397.29	8315
199.000	50251.24	7773
199.577	50106.03	8280
200.153	49961.66	9812
200.730	49818.12	9549
201.307	49675.40	9477
201.884	49533.49	1.382E4
202.460	49392.40	1.182E4
203.037	49252.10	1.281E4
203.614	49112.60	1.414E4
204.190	48973.89	1.661E4
204.767	48835.96	1.741E4
205.344	48698.80	1.731E4
205.921	48562.41	1.679E4
206.497	48426.79	1.823E4
207.074	48291.92	1.779E4
207.651	48157.80	1.902E4
208.227	48024.42	2.028E4
208.804	47891.78	2.078E4
209.381	47759.87	2.146E4
209.958	47628.68	2.191E4
210.534	47498.21	2.19E4
211.111	47368.46	2.171E4
211.688	47239.41	2.301E4
212.264	47111.06	2.246E4
212.841	46983.41	2.171E4
213.418	46856.45	2.289E4
213.994	46730.17	2.317E4
214.571	46604.58	2.547E4
215.148	46479.65	2.689E4
215.725	46355.40	2.286E4
216.301	46231.80	2.469E4
216.878	46108.86	2.053E4
217.455	45986.58	2.279E4
218.031	45864.94	2.24E4
218.608	45743.95	2.214E4
219.185	45623.59	2.274E4
219.762	45503.86	2.235E4
220.338	45384.76	2.182E4
220.915	45266.28	2.178E4
221.492	45148.42	2.151E4
222.068	45031.17	2.129E4
222.645	44914.52	2.137E4
223.222	44798.48	2.15E4
223.799	44683.04	2.164E4
224.375	44568.19	2.167E4
224.952	44453.94	2.167E4
225.529	44340.26	2.194E4
226.105	44227.17	2.217E4
226.682	44114.65	2.254E4
227.259	44002.70	2.288E4
227.836	43891.32	2.321E4
228.412	43780.50	2.374E4
228.989	43670.23	2.415E4
229.566	43560.53	2.441E4
230.142	43451.37	2.51E4
230.719	43342.76	2.578E4
231.296	43234.69	2.591E4
231.872	43127.16	2.621E4
232.449	43020.16	2.671E4
233.026	42913.69	2.668E4
233.603	42807.74	2.717E4
234.179	42702.32	2.766E4
234.756	42597.42	2.793E4
235.333	42493.03	2.881E4
235.909	42389.15	2.91E4
236.486	42285.78	2.887E4
237.063	42182.91	2.889E4
237.640	42080.54	2.908E4
238.216	41978.66	2.908E4
238.793	41877.28	2.888E4
239.370	41776.38	2.887E4
239.946	41675.98	2.888E4
240.523	41576.05	2.9E4
241.100	41476.60	2.867E4
241.677	41377.62	2.904E4
242.253	41279.12	2.873E4
242.830	41181.08	2.857E4
243.407	41083.51	2.785E4
243.983	40986.40	2.797E4
244.560	40889.75	2.681E4
245.137	40793.55	2.629E4
245.713	40697.81	2.63E4
246.290	40602.51	2.633E4
246.867	40507.66	2.541E4
247.444	40413.25	2.496E4
248.020	40319.28	2.462E4
248.597	40225.74	2.414E4
249.174	40132.64	2.336E4
249.750	40039.97	2.291E4
250.327	39947.72	2.245E4
250.904	39855.90	2.201E4
251.481	39764.50	2.147E4
252.057	39673.52	2.089E4
252.634	39582.96	2.052E4
253.211	39492.80	2.008E4
253.787	39403.06	1.955E4
254.364	39313.72	1.905E4
254.941	39224.79	1.871E4
255.518	39136.26	1.823E4
256.094	39048.13	1.781E4
256.671	38960.39	1.742E4
257.248	38873.05	1.703E4
257.824	38786.09	1.667E4
258.401	38699.53	1.631E4
258.978	38613.35	1.593E4
259.554	38527.56	1.558E4
260.131	38442.14	1.53E4
260.708	38357.10	1.494E4
261.285	38272.44	1.463E4
261.861	38188.15	1.435E4
262.438	38104.23	1.41E4
263.015	38020.68	1.382E4
263.591	37937.50	1.36E4
264.168	37854.68	1.339E4
264.745	37772.21	1.318E4
265.322	37690.11	1.3E4
265.898	37608.37	1.285E4
266.475	37526.97	1.27E4
267.052	37445.93	1.258E4
267.628	37365.24	1.247E4
268.205	37284.90	1.236E4
268.782	37204.90	1.226E4
269.359	37125.24	1.218E4
269.935	37045.92	1.211E4
270.512	36966.94	1.207E4
271.089	36888.30	1.202E4
271.665	36809.99	1.199E4
272.242	36732.01	1.199E4
272.819	36654.37	1.196E4
273.396	36577.05	1.198E4
273.972	36500.05	1.202E4
274.549	36423.38	1.206E4
275.126	36347.03	1.21E4
275.702	36271.00	1.217E4
276.279	36195.29	1.223E4
276.856	36119.89	1.231E4
277.432	36044.81	1.237E4
278.009	35970.04	1.243E4
278.586	35895.57	1.249E4
279.163	35821.42	1.259E4
279.739	35747.57	1.27E4
280.316	35674.02	1.281E4
280.893	35600.78	1.293E4
281.469	35527.84	1.309E4
282.046	35455.19	1.325E4
282.623	35382.84	1.341E4
283.200	35310.79	1.36E4
283.776	35239.03	1.379E4
284.353	35167.56	1.395E4
284.930	35096.38	1.413E4
285.506	35025.49	1.435E4
286.083	34954.88	1.453E4
286.660	34884.56	1.47E4
287.237	34814.51	1.485E4
287.813	34744.75	1.503E4
288.390	34675.27	1.52E4
288.967	34606.07	1.533E4
289.543	34537.14	1.546E4
290.120	34468.49	1.555E4
290.697	34400.11	1.561E4
291.273	34332.00	1.568E4
291.850	34264.15	1.578E4
292.427	34196.58	1.588E4
293.004	34129.27	1.59E4
293.580	34062.23	1.596E4
294.157	33995.45	1.599E4
294.734	33928.93	1.599E4
295.310	33862.67	1.599E4
295.887	33796.67	1.597E4
296.464	33730.92	1.591E4
297.041	33665.44	1.582E4
297.617	33600.20	1.569E4
298.194	33535.22	1.557E4
298.771	33470.48	1.543E4
299.347	33406.00	1.522E4
299.924	33341.77	1.498E4
300.501	33277.78	1.475E4
301.078	33214.04	1.445E4
301.654	33150.54	1.413E4
302.231	33087.28	1.383E4
302.808	33024.26	1.351E4
303.384	32961.49	1.318E4
303.961	32898.95	1.286E4
304.538	32836.65	1.252E4
305.114	32774.58	1.221E4
305.691	32712.75	1.187E4
306.268	32651.15	1.158E4
306.845	32589.78	1.13E4
307.421	32528.65	1.106E4
307.998	32467.74	1.079E4
308.575	32407.06	1.056E4
309.151	32346.61	1.035E4
309.728	32286.38	1.015E4
310.305	32226.37	9960
310.882	32166.59	9785
311.458	32107.03	9610
312.035	32047.69	9447
312.612	31988.57	9302
313.188	31929.66	9167
313.765	31870.97	9050
314.342	31812.50	8948
314.919	31754.24	8855
315.495	31696.20	8773
316.072	31638.36	8690
316.649	31580.74	8612
317.225	31523.33	8539
317.802	31466.12	8469
318.379	31409.13	8403
318.956	31352.34	8346
319.532	31295.75	8293
320.109	31239.37	8242
320.686	31183.19	8182
321.262	31127.21	8121
321.839	31071.43	8087
322.416	31015.85	8046
322.992	30960.47	8003
323.569	30905.29	7953
324.146	30850.31	7923
324.723	30795.52	7883
325.299	30740.92	7833
325.876	30686.52	7794
326.453	30632.31	7759
327.029	30578.29	7720
327.606	30524.46	7672
328.183	30470.82	7634
328.760	30417.37	7602
329.336	30364.10	7572
329.913	30311.02	7538
330.490	30258.13	7513
331.066	30205.42	7495
331.643	30152.90	7473
332.220	30100.55	7451
332.797	30048.39	7428
333.373	29996.41	7408
333.950	29944.61	7397
334.527	29892.99	7391
335.103	29841.54	7401
335.680	29790.27	7379
336.257	29739.18	7388
336.833	29688.26	7392
337.410	29637.52	7404
337.987	29586.95	7420
338.564	29536.55	7443
339.140	29486.32	7466
339.717	29436.26	7479
340.294	29386.38	7524
340.870	29336.66	7554
341.447	29287.11	7610
342.024	29237.73	7646
342.601	29188.51	7699
343.177	29139.46	7742
343.754	29090.57	7808
344.331	29041.85	7873
344.907	28993.29	7950
345.484	28944.89	8027
346.061	28896.65	8118
346.638	28848.58	8210
347.214	28800.66	8288
347.791	28752.90	8380
348.368	28705.31	8490
348.944	28657.86	8595
349.521	28610.58	8703
350.098	28563.45	8831
350.674	28516.47	8955
351.251	28469.65	9077
351.828	28422.99	9216
352.405	28376.47	9330
352.981	28330.11	9438
353.558	28283.90	9591
354.135	28237.84	9706
354.711	28191.93	9840
355.288	28146.17	9956
355.865	28100.55	1.009E4
356.442	28055.09	1.02E4
357.018	28009.77	1.028E4
357.595	27964.60	1.037E4
358.172	27919.57	1.048E4
358.748	27874.69	1.055E4
359.325	27829.95	1.071E4
359.902	27785.35	1.08E4
360.479	27740.90	1.088E4
361.055	27696.59	1.094E4
361.632	27652.42	1.103E4
362.209	27608.40	1.111E4
362.785	27564.51	1.119E4
363.362	27520.76	1.125E4
363.939	27477.15	1.132E4
364.516	27433.68	1.138E4
365.092	27390.34	1.144E4
365.669	27347.14	1.149E4
366.246	27304.08	1.153E4
366.822	27261.15	1.159E4
367.399	27218.36	1.166E4
367.976	27175.70	1.174E4
368.552	27133.18	1.182E4
369.129	27090.79	1.185E4
369.706	27048.53	1.188E4
370.283	27006.40	1.189E4
370.859	26964.40	1.192E4
371.436	26922.54	1.195E4
372.013	26880.80	1.194E4
372.589	26839.19	1.194E4
373.166	26797.72	1.191E4
373.743	26756.37	1.192E4
374.320	26715.14	1.18E4
374.896	26674.05	1.181E4
375.473	26633.08	1.166E4
376.050	26592.23	1.157E4
376.626	26551.51	1.151E4
377.203	26510.92	1.141E4
377.780	26470.45	1.127E4
378.357	26430.10	1.115E4
378.933	26389.87	1.1E4
379.510	26349.77	1.084E4
380.087	26309.79	1.066E4
380.663	26269.93	1.05E4
381.240	26230.19	1.027E4
381.817	26190.57	1.005E4
382.393	26151.07	9857
382.970	26111.69	9655
383.547	26072.43	9443
384.124	26033.29	9222
384.700	25994.26	9000
385.277	25955.35	8793
385.854	25916.56	8582
386.430	25877.88	8373
387.007	25839.32	8178
387.584	25800.87	7974
388.161	25762.53	7781
388.737	25724.31	7610
389.314	25686.21	7421
389.891	25648.21	7241
390.467	25610.33	7060
391.044	25572.56	6916
391.621	25534.90	6743
392.198	25497.36	6591
392.774	25459.92	6435
393.351	25422.59	6311
393.928	25385.37	6175
394.504	25348.26	6041
395.081	25311.26	5925
395.658	25274.37	5815
396.234	25237.58	5691
396.811	25200.90	5565
397.388	25164.33	5469
397.965	25127.86	5370
398.541	25091.50	5266
399.118	25055.24	5183
399.695	25019.09	5092
400.271	24983.05	5010
400.848	24947.10	4926
401.425	24911.26	4837
402.002	24875.52	4758
402.578	24839.89	4685
403.155	24804.36	4606
403.732	24768.92	4533
404.308	24733.59	4460
404.885	24698.36	4385
405.462	24663.23	4315
406.039	24628.20	4248
406.615	24593.27	4179
407.192	24558.44	4108
407.769	24523.71	4038
408.345	24489.07	3974
408.922	24454.54	3907
409.499	24420.10	3834
410.076	24385.75	3775
410.652	24351.51	3708
411.229	24317.36	3649
411.806	24283.30	3584
412.382	24249.34	3513
412.959	24215.48	3445
413.536	24181.71	3387
414.112	24148.03	3337
414.689	24114.45	3265
415.266	24080.96	3195
415.843	24047.56	3145
416.419	24014.26	3060
416.996	23981.04	3005
417.573	23947.92	2939
418.149	23914.90	2877
418.726	23881.96	2806
419.303	23849.11	2752
419.880	23816.35	2684
420.456	23783.69	2624
421.033	23751.11	2565
421.610	23718.62	2508
422.186	23686.22	2455
422.763	23653.91	2395
423.340	23621.69	2336
423.917	23589.55	2290
424.493	23557.50	2228
425.070	23525.54	2162
425.647	23493.67	2105
426.223	23461.88	2049
426.800	23430.17	1996
427.377	23398.56	1945
427.953	23367.03	1894
428.530	23335.58	1837
429.107	23304.22	1781
429.684	23272.94	1734
430.260	23241.74	1686
430.837	23210.63	1642
431.414	23179.61	1597
431.990	23148.66	1550
432.567	23117.80	1498
433.144	23087.02	1453
433.721	23056.32	1415
434.297	23025.70	1377
434.874	22995.17	1330
435.451	22964.71	1283
436.027	22934.34	1252
436.604	22904.04	1217
437.181	22873.83	1169
437.758	22843.70	1130
438.334	22813.64	1095
438.911	22783.67	1060
439.488	22753.77	1017
440.064	22723.95	982
440.641	22694.21	954.8
441.218	22664.54	916.3
441.794	22634.96	875
442.371	22605.45	846.4
442.948	22576.02	822.8
443.525	22546.66	797.4
444.101	22517.38	764.8
444.678	22488.18	740
445.255	22459.05	715.9
445.831	22430.00	692.8
446.408	22401.02	669.3
446.985	22372.12	644.7
447.562	22343.29	622.9
448.138	22314.54	608.9
448.715	22285.86	584.4
449.292	22257.25	557.1
449.868	22228.72	532.7
450.445	22200.26	511.5
451.022	22171.88	491.9
451.599	22143.56	473.8
452.175	22115.32	456.9
452.752	22087.15	440.1
453.329	22059.05	424.7
453.905	22031.02	407.2
454.482	22003.07	393.2
455.059	21975.18	383.3
455.636	21947.37	370.7
456.212	21919.62	353
456.789	21891.95	338.6
457.366	21864.35	325.3
457.942	21836.81	303.7
458.519	21809.34	293.3
459.096	21781.95	282.1
459.672	21754.62	271.9
460.249	21727.36	265.3
460.826	21700.17	252
461.403	21673.05	243.8
461.979	21645.99	236.3
462.556	21619.00	222.4
463.133	21592.08	201.3
463.709	21565.23	207.8
464.286	21538.44	194.2
464.863	21511.72	187.2
465.440	21485.07	181.6
466.016	21458.48	171.3
466.593	21431.96	169.1
467.170	21405.50	165.3
467.746	21379.11	146.4
468.323	21352.78	149.1
468.900	21326.52	139.2
469.477	21300.32	134.8
470.053	21274.19	132.6
470.630	21248.12	124.5
471.207	21222.11	120.3
471.783	21196.17	117.7
472.360	21170.29	111.4
472.937	21144.48	110.3
473.513	21118.72	110.1
474.090	21093.03	102.7
474.667	21067.41	95.45
475.244	21041.84	85.68
475.820	21016.34	87.22
476.397	20990.90	82.54
476.974	20965.52	76.68
477.550	20940.20	80
478.127	20914.94	73.07
478.704	20889.74	65.77
479.281	20864.61	64.2
479.857	20839.53	62.03
480.434	20814.51	57.63
481.011	20789.56	52.18
481.587	20764.66	52.89
482.164	20739.83	57.36
482.741	20715.05	54.48
483.318	20690.33	41.66
483.894	20665.67	35.55
484.471	20641.07	22.27
485.048	20616.53	32.76
485.624	20592.05	44.75
486.201	20567.62	49.9
486.778	20543.25	28.95
487.354	20518.95	36.29
487.931	20494.69	35.87
488.508	20470.50	18.03
489.085	20446.36	41.4
489.661	20422.28	38.58
490.238	20398.25	30.97
490.815	20374.29	31.89
491.391	20350.37	37.26
491.968	20326.52	16.63
492.545	20302.72	7.992
493.122	20278.97	22.54
493.698	20255.29	18.08
494.275	20231.65	18.72
494.852	20208.07	22.93
495.428	20184.55	15.69
496.005	20161.08	22.35
496.582	20137.67	30.21
497.159	20114.31	23.11
497.735	20091.00	27.18
498.312	20067.75	28.07
498.889	20044.55	21.51
499.465	20021.41	19.9
500.042	19998.32	15.38
500.619	19975.28	15.16
501.196	19952.29	14.4
501.772	19929.36	10.47
502.349	19906.48	16.75
502.926	19883.66	15.76
503.502	19860.88	17.1
504.079	19838.16	18.95
504.656	19815.49	20.48
505.232	19792.87	19.47
505.809	19770.30	12.38
506.386	19747.79	8.937
506.963	19725.32	13.14
507.539	19702.91	18.75
508.116	19680.55	15.01
508.693	19658.23	8.028
509.269	19635.97	12.01
509.846	19613.76	20.92
510.423	19591.60	20.65
511.000	19569.49	13.29
511.576	19547.43	13.68
512.153	19525.42	18.46
512.730	19503.45	13.8
513.306	19481.54	0.4596
513.883	19459.68	18.34
514.460	19437.86	17.81
515.037	19416.10	3.158
515.613	19394.38	12.18
516.190	19372.71	23.82
516.767	19351.09	33.77
517.343	19329.52	18.1
517.920	19308.00	29.82
518.497	19286.52	11.56
519.073	19265.10	19.25
519.650	19243.71	12.42
520.227	19222.38	15.27
520.804	19201.10	27.9
521.380	19179.86	7.409
521.957	19158.67	13.83
522.534	19137.52	36.51
523.110	19116.42	23.17
523.687	19095.37	6.248
524.264	19074.36	3.91
524.841	19053.41	9.118
525.417	19032.49	15.49
525.994	19011.62	14.86
526.571	18990.80	26.98
527.147	18970.03	22.15
527.724	18949.30	25.96
528.301	18928.61	24.29
528.878	18907.97	15.35
529.454	18887.37	9.309
530.031	18866.82	9.406
530.608	18846.32	10.16
531.184	18825.86	9.642
531.761	18805.44	13.93
532.338	18785.07	6.069
532.914	18764.74	6.218
533.491	18744.45	9.74
534.068	18724.21	11.91
534.645	18704.01	12.96
535.221	18683.86	14.55
535.798	18663.75	14.37
536.375	18643.68	15.22
536.951	18623.66	15.96
537.528	18603.68	19.51
538.105	18583.74	11.42
538.682	18563.84	5.32
539.258	18543.99	3.872
539.835	18524.18	6.198
540.412	18504.41	9.189
540.988	18484.68	4.972
541.565	18465.00	10.22
542.142	18445.36	14.39
542.719	18425.76	8.472
543.295	18406.20	9.695
543.872	18386.68	11.55
544.449	18367.20	-0.4318
545.025	18347.77	-3.746
545.602	18328.38	11.07
546.179	18309.02	2.863
546.756	18289.71	-2.463
547.332	18270.44	-6.762
547.909	18251.21	-10.12
548.486	18232.02	-4.58
549.062	18212.87	11.52
549.639	18193.76	11.3
550.216	18174.69	2.101
550.792	18155.66	9.417
551.369	18136.67	-1.424
551.946	18117.72	-0.3725
552.523	18098.81	7.85
553.099	18079.94	13.65
553.676	18061.10	18.64
554.253	18042.31	19.02
554.829	18023.56	10.29
555.406	18004.84	5.728
555.983	17986.17	8.42
556.560	17967.53	7.122
557.136	17948.93	5.124
557.713	17930.37	1.509
558.290	17911.85	4.129
558.866	17893.36	13.24
559.443	17874.92	15.68
560.020	17856.51	4.487
560.597	17838.14	-1.282
561.173	17819.81	-3.372
561.750	17801.52	-9.745
562.327	17783.26	-10.05
562.903	17765.04	-5.766
563.480	17746.86	4.397
564.057	17728.71	4.949
564.633	17710.60	3.614
565.210	17692.53	-7.041
565.787	17674.50	-8.601
566.364	17656.50	-5.003
566.940	17638.54	2.975
567.517	17620.62	-7.378
568.094	17602.73	-8.455
568.670	17584.88	-10.76
569.247	17567.06	-18.37
569.824	17549.28	-8.643
570.401	17531.54	-5.578
570.977	17513.83	-2.91
571.554	17496.16	-5.003
572.131	17478.52	-7.624
572.707	17460.92	-8.857
573.284	17443.36	-5.207
573.861	17425.83	-4.444
574.438	17408.33	-1.745
575.014	17390.87	-9.016
575.591	17373.45	-9.028
576.168	17356.06	-4.104
576.744	17338.70	-2.539
577.321	17321.38	0.2343
577.898	17304.10	3.527
578.474	17286.85	-3.062
579.051	17269.63	-2.523
579.628	17252.45	-4.978
580.205	17235.30	-2.261
580.781	17218.18	-1.274
581.358	17201.10	0.9039
581.935	17184.06	2.715
582.511	17167.04	-0.09944
583.088	17150.07	-1.993
583.665	17133.12	-2.982
584.242	17116.21	-1.168
584.818	17099.33	4.023
585.395	17082.48	8.413
585.972	17065.67	12.02
586.548	17048.89	11.18
587.125	17032.14	2.436
587.702	17015.43	-3.144
588.279	16998.75	-3.79
588.855	16982.10	-2.367
589.432	16965.49	-0.5821
590.009	16948.90	2.215
590.585	16932.35	3.091
591.162	16915.83	-4.116
591.739	16899.35	-1.605
592.316	16882.89	-3.075
592.892	16866.47	-2.509
593.469	16850.08	1.533
594.046	16833.72	-0.3225
594.622	16817.40	-0.3693
595.199	16801.10	1.229
595.776	16784.84	7.046
596.352	16768.61	8.212
596.929	16752.41	6.054
597.506	16736.24	3.88
598.083	16720.10	-1.395
598.659	16703.99	-1.24
599.236	16687.92	3.198
599.813	16671.87	8.819
600.389	16655.86	4.698
600.966	16639.87	2.135
601.543	16623.92	-0.102
602.120	16608.00	-5.383
602.696	16592.11	-2.275
603.273	16576.24	-7.026
603.850	16560.41	-7.618
604.426	16544.61	0.3494
605.003	16528.84	2.572
605.580	16513.10	-4.416
606.157	16497.39	-9.145
606.733	16481.71	-11.31
607.310	16466.06	-5.584
607.887	16450.44	-9.574
608.463	16434.84	-11.61
609.040	16419.28	-3.119
609.617	16403.75	2.485
610.193	16388.24	0.8977
610.770	16372.77	3.8
611.347	16357.33	-4.725
611.924	16341.91	-0.4149
612.500	16326.52	-1.992
613.077	16311.16	-0.3977
613.654	16295.84	1.684
614.230	16280.53	-0.5242
614.807	16265.26	-9.531
615.384	16250.02	-1.724
615.961	16234.81	5.663
616.537	16219.62	-8.775
617.114	16204.46	-7.882
617.691	16189.33	-14.88
618.267	16174.23	-3.142
618.844	16159.16	-0.9513
619.421	16144.11	0.6382
619.998	16129.10	1.922
620.574	16114.11	0.8444
621.151	16099.15	3.126
621.728	16084.21	-1.795
622.304	16069.31	-6.979
622.881	16054.43	-7.655
623.458	16039.58	-8.502
624.034	16024.76	-3.386
624.611	16009.96	1.165
625.188	15995.19	1.085
625.765	15980.45	-1.099
626.341	15965.74	-8.432
626.918	15951.05	-5.384
627.495	15936.39	-8.896
628.071	15921.76	-10.27
628.648	15907.15	-6.253
629.225	15892.57	-9.453
629.802	15878.02	-3.424
630.378	15863.49	-4.567
630.955	15848.99	-3.547
631.532	15834.52	-10.25
632.108	15820.07	-7.86
632.685	15805.65	-10.82
633.262	15791.26	-9.459
633.839	15776.89	-0.1501
634.415	15762.55	-2.806
634.992	15748.23	-2.64
635.569	15733.94	-3.108
636.145	15719.68	-6.856
636.722	15705.44	-14.01
637.299	15691.23	-18.24
637.875	15677.04	-8.98
638.452	15662.88	-1.293
639.029	15648.74	-3.232
639.606	15634.63	-3.158
640.182	15620.55	-8.954
640.759	15606.49	-14.96
641.336	15592.46	-16.83
641.912	15578.45	-15.43
642.489	15564.46	-15.34
643.066	15550.51	-13.34
643.643	15536.57	-11.56
644.219	15522.66	-11.02
644.796	15508.78	-13.62
645.373	15494.92	-10.94
645.949	15481.09	-11.68
646.526	15467.28	-4.048
647.103	15453.49	-3.738
647.680	15439.73	-4.256
648.256	15426.00	-0.5781
648.833	15412.29	-8.01
649.410	15398.60	-8.054
649.986	15384.94	1.325
650.563	15371.30	5.188
651.140	15357.69	4.5
651.717	15344.09	-2.813
652.293	15330.53	-8.543
652.870	15316.99	-0.8671
653.447	15303.47	-2.553
654.023	15289.97	-7.307
654.600	15276.50	-10.17
655.177	15263.06	-9.574
655.753	15249.63	1.976
656.330	15236.23	10.26
656.907	15222.86	11.65
657.484	15209.50	5.755
658.060	15196.18	-0.2905
658.637	15182.87	-3.476
659.214	15169.59	-0.4512
659.790	15156.33	-4.718
660.367	15143.09	-3.347
660.944	15129.88	-1.516
661.521	15116.69	2.595
662.097	15103.52	3.338
662.674	15090.38	-2.158
663.251	15077.26	-6.891
663.827	15064.16	-9.325
664.404	15051.08	-9.156
664.981	15038.03	-5.291
665.558	15025.00	-5.738
666.134	15011.99	-8.614
666.711	14999.00	-6.186
667.288	14986.04	-5.338
667.864	14973.10	-4.978
668.441	14960.18	-1.884
669.018	14947.29	-2.46
669.594	14934.41	-3.533
670.171	14921.56	-3.928
670.748	14908.73	-3.618
671.325	14895.92	-11.44
671.901	14883.14	-10.75
672.478	14870.37	-4.722
673.055	14857.63	-9.825
673.631	14844.91	-4.681
674.208	14832.21	-0.5729
674.785	14819.54	-2.041
675.362	14806.88	-5.317
675.938	14794.25	-9.396
676.515	14781.64	-11.03
677.092	14769.05	-12.01
677.668	14756.48	-11.81
678.245	14743.93	-9.664
678.822	14731.41	-9.839
679.399	14718.90	-13.13
679.975	14706.42	-15.3
680.552	14693.96	-11.61
681.129	14681.51	-7.949
681.705	14669.09	-9.397
682.282	14656.69	-11.42
682.859	14644.32	-12.16
683.435	14631.96	-11
684.012	14619.62	-5.481
684.589	14607.31	-8.086
685.166	14595.01	-15.27
685.742	14582.74	-14.09
686.319	14570.48	-12.18
686.896	14558.25	-10.76
687.472	14546.04	-8.515
688.049	14533.85	-9.657
688.626	14521.67	-13.78
689.203	14509.52	-16.69
689.779	14497.39	-13.58
690.356	14485.28	-10.59
690.933	14473.19	-13.23
691.509	14461.12	-19.23
692.086	14449.07	-18.87
692.663	14437.04	-18.16
693.240	14425.03	-16.43
693.816	14413.04	-11.46
694.393	14401.07	-8.702
694.970	14389.12	-7.939
695.546	14377.19	-8.945
696.123	14365.28	-12.34
696.700	14353.38	-12.41
697.277	14341.51	-5.724
697.853	14329.66	-4.318
698.430	14317.83	-2.05
699.007	14306.02	0.3334
699.583	14294.22	-3.502
700.160	14282.45	-6.082
700.737	14270.69	-8.371
701.313	14258.96	-14.65
701.890	14247.24	-23.74
702.467	14235.55	-25.8
703.044	14223.87	-28.34
703.620	14212.21	-30.74
704.197	14200.57	-25.12
704.774	14188.95	-22.69
705.350	14177.35	-16.6
705.927	14165.77	-8.238
706.504	14154.20	-10.41
707.081	14142.66	-8.898
707.657	14131.13	-6.025
708.234	14119.63	-1.39
708.811	14108.14	1.328
709.387	14096.67	-3.033
709.964	14085.22	-6.419
710.541	14073.79	-9.221
711.118	14062.37	-9.951
711.694	14050.98	-9.797
712.271	14039.60	-4.687
712.848	14028.24	-0.1374
713.424	14016.90	-4.329
714.001	14005.58	-7.03
714.578	13994.28	-4.129
715.154	13982.99	-8.03
715.731	13971.73	-3.945
716.308	13960.48	-0.3811
716.885	13949.25	-3.062
717.461	13938.03	1.287
718.038	13926.84	-1.731
718.615	13915.66	-1.196
719.191	13904.50	-0.9967
719.768	13893.36	-3.991
720.345	13882.24	-8.743
720.922	13871.13	-13.25
721.498	13860.05	-13.04
722.075	13848.98	-15.06
722.652	13837.92	-12.67
723.228	13826.89	-3.918
723.805	13815.87	-8.563
724.382	13804.87	-10.01
724.959	13793.89	-12.94
725.535	13782.93	-9.523
726.112	13771.98	-6.22
726.689	13761.05	-16.21
727.265	13750.14	-15.35
727.842	13739.24	-22.7
728.419	13728.37	-19.41
728.995	13717.51	-22.98
729.572	13706.66	-17.3
730.149	13695.84	-13.53
730.726	13685.03	-12.44
731.302	13674.24	-10.61
731.879	13663.46	-7.425
732.456	13652.70	-9.989
733.032	13641.96	-10.63
733.609	13631.24	-16.42
734.186	13620.53	-16.53
734.763	13609.84	-18.98
735.339	13599.16	-11.11
735.916	13588.51	-8.018
736.493	13577.87	-7.594
737.069	13567.24	-6.167
737.646	13556.64	-9.407
738.223	13546.05	-9.343
738.800	13535.47	-9.955
739.376	13524.91	-11.98
739.953	13514.37	-6.427
740.530	13503.85	-10.23
741.106	13493.34	-14.1
741.683	13482.85	-13.46
742.260	13472.37	-14.95
742.837	13461.91	-15
743.413	13451.47	-14.07
743.990	13441.04	-18.32
744.567	13430.63	-15.38
745.143	13420.24	-10.81
745.720	13409.86	-9.03
746.297	13399.50	-9.814
746.873	13389.15	-9.402
747.450	13378.82	-12.09
748.027	13368.50	-11.68
748.604	13358.20	-10.56
749.180	13347.92	-6.08
749.757	13337.65	-7.043
750.334	13327.40	-9.86
750.910	13317.17	-8.688
751.487	13306.95	-13.93
752.064	13296.74	-17.08
752.641	13286.55	-15.96
753.217	13276.38	-14.35
753.794	13266.22	-16.22
754.371	13256.08	-15.05
754.947	13245.96	-11.92
755.524	13235.85	-3.916
756.101	13225.75	-6.495
756.678	13215.67	-7.669
757.254	13205.60	-12.21
757.831	13195.56	-15.51
758.408	13185.52	-15.83
758.984	13175.50	-14.93
759.561	13165.50	-22.13
760.138	13155.51	-24.8
760.714	13145.54	-23.36
761.291	13135.58	-21.28
761.868	13125.63	-20.19
762.445	13115.71	-20.35
763.021	13105.79	-17.31
763.598	13095.90	-16.31
764.175	13086.01	-18.46
764.751	13076.14	-23.85
765.328	13066.29	-26.7
765.905	13056.45	-28.19
766.482	13046.63	-28.53
767.058	13036.82	-26.33
767.635	13027.02	-24.27
768.212	13017.25	-25.11
768.788	13007.48	-27.75
769.365	12997.73	-25.81
769.942	12987.99	-20.37
770.519	12978.27	-15.12
771.095	12968.57	-11.32
771.672	12958.87	-10.3
772.249	12949.20	-11.35
772.825	12939.53	-13.32
773.402	12929.89	-18.27
773.979	12920.25	-19.18
774.555	12910.63	-18.59
775.132	12901.03	-19.28
775.709	12891.43	-21.02
776.286	12881.86	-21.95
776.862	12872.29	-18.77
777.439	12862.74	-13.7
778.016	12853.21	-9.835
778.592	12843.69	-11.38
779.169	12834.18	-12.66
779.746	12824.69	-11.01
780.323	12815.21	-4.959
780.899	12805.75	-4.649
781.476	12796.30	-3.061
782.053	12786.86	-1.925
782.629	12777.44	-3.493
783.206	12768.03	-4.291
783.783	12758.64	-3.238
784.360	12749.26	-2.67
784.936	12739.89	-5.259
785.513	12730.53	-5.168
786.090	12721.19	-6.637
786.666	12711.87	-7.192
787.243	12702.56	-2.919
787.820	12693.26	-3.356
788.397	12683.97	-9.992
788.973	12674.70	-13.76
789.550	12665.44	-8.441
790.127	12656.20	-5.599
790.703	12646.97	-10.67
791.280	12637.75	-10.81
791.857	12628.55	-14.9
792.433	12619.36	-15.83
793.010	12610.18	-18.09
793.587	12601.01	-21.27
794.164	12591.86	-22.6
794.740	12582.73	-22.26
795.317	12573.60	-30.1
795.894	12564.49	-34.45
796.470	12555.39	-30.83
797.047	12546.31	-29.67
797.624	12537.24	-29.58
798.201	12528.18	-23.41
798.777	12519.13	-28.69
799.354	12510.10	-20.55
799.931	12501.08	-18.77
800.507	12492.08	-14.39
801.084	12483.08	-24.15
801.661	12474.10	-29.15
802.238	12465.14	-31.29
802.814	12456.18	-26.18
803.391	12447.24	-17.67
803.968	12438.31	-18.12
804.544	12429.40	-25.29
805.121	12420.49	-30.54
805.698	12411.60	-33.15
806.274	12402.72	-31.21
806.851	12393.86	-28.32
807.428	12385.01	-19.47
808.005	12376.17	-14.8
808.581	12367.34	-13.09
809.158	12358.53	-13.45
809.735	12349.72	-19.65
810.311	12340.93	-19.32
810.888	12332.16	-17.28
811.465	12323.39	-19.12
812.042	12314.64	-21.52
812.618	12305.90	-22.78
813.195	12297.17	-18.5
813.772	12288.46	-20.52
814.348	12279.76	-27.85
814.925	12271.07	-24.56
815.502	12262.39	-22.47
816.079	12253.72	-24.73
816.655	12245.07	-25.24
817.232	12236.43	-26.24
817.809	12227.80	-23.25
818.385	12219.18	-21.43
818.962	12210.58	-23.92
819.539	12201.98	-29.1
820.115	12193.40	-27.05
820.692	12184.84	-26.38
821.269	12176.28	-26.01
821.846	12167.74	-24.69
822.422	12159.20	-23.46
822.999	12150.68	-20.23
823.576	12142.17	-17.72
824.152	12133.68	-18.94
824.729	12125.19	-18.67
825.306	12116.72	-29.23
825.883	12108.26	-23.84
826.459	12099.81	-23.18
827.036	12091.37	-30.36
827.613	12082.95	-26.48
828.189	12074.53	-29.9
828.766	12066.13	-29.47
829.343	12057.74	-28.97
829.920	12049.36	-28.65
830.496	12040.99	-32.05
831.073	12032.64	-32.54
831.650	12024.29	-33.41
832.226	12015.96	-34.04
832.803	12007.64	-39.15
833.380	11999.33	-33.67
833.957	11991.03	-29.22
834.533	11982.75	-25.4
835.110	11974.47	-28.92
835.687	11966.21	-27.76
836.263	11957.96	-26.09
836.840	11949.71	-18.88
837.417	11941.49	-16.51
837.993	11933.27	-13.86
838.570	11925.06	-16.99
839.147	11916.86	-21.06
839.724	11908.68	-21.43
840.300	11900.51	-19.16
840.877	11892.35	-13.24
841.454	11884.19	-11.97
842.030	11876.06	-11.03
842.607	11867.93	-5.849
843.184	11859.81	-9.572
843.761	11851.70	-15.52
844.337	11843.61	-19.68
844.914	11835.52	-22.31
845.491	11827.45	-22.57
846.067	11819.39	-23.28
846.644	11811.34	-26.32
847.221	11803.30	-29.92
847.798	11795.27	-31.01
848.374	11787.25	-32.3
848.951	11779.24	-33.68
849.528	11771.25	-32.37
850.104	11763.26	-29.59
850.681	11755.29	-29.36
851.258	11747.32	-28.69
851.834	11739.37	-27.97
852.411	11731.43	-28.21
852.988	11723.50	-31.38
853.565	11715.57	-36.11
854.141	11707.66	-36.82
854.718	11699.76	-33.45
855.295	11691.88	-27.28
855.871	11684.00	-27.32
856.448	11676.13	-21.9
857.025	11668.27	-24.8
857.602	11660.43	-24.87
858.178	11652.59	-27.73
858.755	11644.76	-28.53
859.332	11636.95	-19.59
859.908	11629.15	-18.32
860.485	11621.35	-17.8
861.062	11613.57	-14.34
861.639	11605.79	-21.2
862.215	11598.03	-18.51
862.792	11590.28	-20.02
863.369	11582.54	-20.59
863.945	11574.81	-24.51
864.522	11567.08	-28.21
865.099	11559.37	-23.18
865.675	11551.67	-23.78
866.252	11543.98	-26.34
866.829	11536.30	-25.66
867.406	11528.63	-28.57
867.982	11520.97	-31.38
868.559	11513.32	-29.86
869.136	11505.68	-28.85
869.712	11498.05	-30.86
870.289	11490.43	-28.62
870.866	11482.82	-28.17
871.443	11475.23	-29.15
872.019	11467.64	-24.43
872.596	11460.06	-23.46
873.173	11452.49	-21.76
873.749	11444.93	-14.56
874.326	11437.38	-13.78
874.903	11429.84	-16.94
875.480	11422.31	-21.03
876.056	11414.79	-25.9
876.633	11407.28	-29.45
877.210	11399.78	-27.52
877.786	11392.29	-24.92
878.363	11384.81	-21.74
878.940	11377.34	-30.29
879.517	11369.88	-22.27
880.093	11362.43	-35.42
880.670	11354.99	-29.8
881.247	11347.56	-20.35
881.823	11340.14	-19.46
882.400	11332.73	-20.07
882.977	11325.33	-7.876
883.553	11317.93	-10.28
884.130	11310.55	-6.225
884.707	11303.18	-8.974
885.284	11295.82	-11.21
885.860	11288.46	-14.69
886.437	11281.12	-23.47
887.014	11273.78	-25.75
887.590	11266.46	-23.29
888.167	11259.14	-21.93
888.744	11251.84	-20.8
889.321	11244.54	-20.62
889.897	11237.25	-14.45
890.474	11229.97	-18.42
891.051	11222.71	-18.02
891.627	11215.45	-14.54
892.204	11208.20	-17.75
892.781	11200.96	-11.37
893.358	11193.73	-11.12
893.934	11186.51	-15.24
894.511	11179.29	-20.82
895.088	11172.09	-12.96
895.664	11164.90	-14.21
896.241	11157.71	-18.8
896.818	11150.54	-19.92
897.394	11143.37	-21.23
897.971	11136.21	-23.66
898.548	11129.07	-28.89
899.125	11121.93	-15.59
899.701	11114.80	-26.48
900.278	11107.68	-26.87
900.855	11100.57	-18.07
901.431	11093.47	-29.7
902.008	11086.37	-26.13
902.585	11079.29	-25.19
903.162	11072.22	-19.42
903.738	11065.15	-27.4
904.315	11058.09	-26.13
904.892	11051.05	-24.62
905.468	11044.01	-28.56
906.045	11036.98	-29.65
906.622	11029.96	-33.87
907.199	11022.95	-34.8
907.775	11015.94	-32.82
908.352	11008.95	-31.47
908.929	11001.96	-37.42
909.505	10994.99	-40.19
910.082	10988.02	-41.32
910.659	10981.06	-40.44
911.235	10974.11	-37.9
911.812	10967.17	-36.57
912.389	10960.24	-39.47
912.966	10953.31	-35.33
913.542	10946.40	-31.28
914.119	10939.49	-29.27
914.696	10932.60	-21.09
915.272	10925.71	-27.07
915.849	10918.83	-23.97
916.426	10911.96	-26.98
917.003	10905.09	-28.95
917.579	10898.24	-35.87
918.156	10891.40	-24.1
918.733	10884.56	-27.22
919.309	10877.73	-17.21
919.886	10870.91	-20.86
920.463	10864.10	-16.91
921.040	10857.30	-13.11
921.616	10850.50	-17.59
922.193	10843.72	-15.84
922.770	10836.94	-14.78
923.346	10830.17	-18.92
923.923	10823.41	-19.14
924.500	10816.66	-21.02
925.077	10809.92	-22.4
925.653	10803.18	-22.67
926.230	10796.46	-30.77
926.807	10789.74	-30.74
927.383	10783.03	-35.38
927.960	10776.33	-32.32
928.537	10769.63	-28.53
929.113	10762.95	-40.8
929.690	10756.27	-41.85
930.267	10749.60	-38.01
930.844	10742.94	-32.05
931.420	10736.29	-35.15
931.997	10729.65	-35.04
932.574	10723.01	-29.25
933.150	10716.39	-22.81
933.727	10709.77	-27.11
934.304	10703.16	-27.27
934.881	10696.55	-26.69
935.457	10689.96	-30.86
936.034	10683.37	-30.91
936.611	10676.79	-30.53
937.187	10670.22	-29.68
937.764	10663.66	-31.3
938.341	10657.11	-24.95
938.918	10650.56	-20.41
939.494	10644.02	-26.11
940.071	10637.50	-24.48
940.648	10630.97	-31.08
941.224	10624.46	-28.72
941.801	10617.95	-24.8
942.378	10611.46	-25.43
942.954	10604.97	-25.84
943.531	10598.48	-23.98
944.108	10592.01	-18.13
944.685	10585.54	-14.25
945.261	10579.09	-18.59
945.838	10572.63	-19.11
946.415	10566.19	-22.84
946.991	10559.76	-27.18
947.568	10553.33	-33.1
948.145	10546.91	-33.02
948.722	10540.50	-32.21
949.298	10534.10	-26.72
949.875	10527.70	-34.83
950.452	10521.31	-36.66
951.028	10514.93	-45.27
951.605	10508.56	-39.89
952.182	10502.20	-34.31
952.759	10495.84	-39.67
953.335	10489.49	-34.74
953.912	10483.15	-40.92
954.489	10476.81	-37.69
955.065	10470.49	-39.3
955.642	10464.17	-36
956.219	10457.86	-36.21
956.795	10451.55	-37.57
957.372	10445.26	-32.13
957.949	10438.97	-35.11
958.526	10432.69	-40.63
959.102	10426.42	-45.24
959.679	10420.15	-46.63
960.256	10413.89	-50.07
960.832	10407.64	-54.11
961.409	10401.40	-47.33
961.986	10395.16	-45.96
962.563	10388.93	-41.42
963.139	10382.71	-42.07
963.716	10376.50	-49.78
964.293	10370.30	-44.46
964.869	10364.10	-44.55
965.446	10357.91	-29.57
966.023	10351.72	-26.38
966.600	10345.55	-28.65
967.176	10339.38	-30
967.753	10333.22	-29.73
968.330	10327.06	-31.73
968.906	10320.91	-27.52
969.483	10314.78	-28.58
970.060	10308.64	-36.91
970.637	10302.52	-39.49
971.213	10296.40	-33.06
971.790	10290.29	-31.96
972.367	10284.19	-31.26
972.943	10278.09	-26.27
973.520	10272.00	-24.37
974.097	10265.92	-27.34
974.673	10259.85	-32.12
975.250	10253.78	-30.5
975.827	10247.72	-27.63
976.404	10241.67	-20.68
976.980	10235.62	-12.42
977.557	10229.58	-9.64
978.134	10223.55	-19.2
978.710	10217.53	-23.25
979.287	10211.51	-28.95
979.864	10205.50	-35.7
980.441	10199.50	-29.28
981.017	10193.50	-35.32
981.594	10187.51	-40.52
982.171	10181.53	-42.46
982.747	10175.55	-35.88
983.324	10169.59	-40.38
983.901	10163.63	-34.1
984.478	10157.67	-32.05
985.054	10151.73	-27.86
985.631	10145.79	-37.53
986.208	10139.85	-33.1
986.784	10133.93	-33.12
987.361	10128.01	-35.51
987.938	10122.10	-39.13
988.514	10116.19	-37.85
989.091	10110.29	-33.7
989.668	10104.40	-34.05
990.245	10098.51	-39.69
990.821	10092.64	-45.37
991.398	10086.77	-39.46
991.975	10080.90	-39.62
992.551	10075.04	-37.71
993.128	10069.19	-37.37
993.705	10063.35	-47.24
994.282	10057.51	-34.02
994.858	10051.68	-47.78
995.435	10045.86	-37.99
996.012	10040.04	-43.78
996.588	10034.23	-44.86
997.165	10028.43	-33.11
997.742	10022.63	-39.63
998.319	10016.84	-33.56
998.895	10011.06	-43.33
999.472	10005.28	-50.73
1000.049	9999.51	-56.42
1000.625	9993.75	-60.47
1001.202	9987.99	-50.77
1001.779	9982.24	-42.44
1002.355	9976.50	-45.71
1002.932	9970.76	-48.08
1003.509	9965.03	-34.17
1004.086	9959.31	-30.24
1004.662	9953.59	-35.88
1005.239	9947.88	-38.97
1005.816	9942.18	-44.01
1006.392	9936.48	-52.86
1006.969	9930.79	-52.26
1007.546	9925.11	-45.86
1008.123	9919.43	-49.28
1008.699	9913.76	-47.95
1009.276	9908.09	-52.2
1009.853	9902.43	-40.52
1010.429	9896.78	-43.5
1011.006	9891.14	-42.54
1011.583	9885.50	-49.05
1012.160	9879.87	-55.62
1012.736	9874.24	-59.13
1013.313	9868.62	-62.68
1013.890	9863.01	-60.03
1014.466	9857.40	-50.14
1015.043	9851.80	-55.78
1015.620	9846.20	-50.25
1016.197	9840.62	-49.09
1016.773	9835.03	-52.08
1017.350	9829.46	-51.2
1017.927	9823.89	-43.84
1018.503	9818.33	-45.68
1019.080	9812.77	-51.8
1019.657	9807.22	-44.72
1020.233	9801.68	-47.21
1020.810	9796.14	-48.33
1021.387	9790.61	-35.32
1021.964	9785.08	-39.76
1022.540	9779.57	-29.81
1023.117	9774.05	-38.28
1023.694	9768.55	-44.75
1024.270	9763.05	-53.09
1024.847	9757.55	-52.13
1025.424	9752.06	-50.03
1026.001	9746.58	-53.57
1026.577	9741.11	-58.03
1027.154	9735.64	-47.49
1027.731	9730.18	-46.72
1028.307	9724.72	-43.99
1028.884	9719.27	-46.11
1029.461	9713.82	-46.62
1030.038	9708.38	-30.56
1030.614	9702.95	-39.91
1031.191	9697.53	-39.63
1031.768	9692.10	-45.5
1032.344	9686.69	-44.32
1032.921	9681.28	-53.45
1033.498	9675.88	-60.9
1034.074	9670.48	-43.34
1034.651	9665.09	-34.6
1035.228	9659.71	-52.36
1035.805	9654.33	-50.75
1036.381	9648.96	-52.41
1036.958	9643.59	-44.62
1037.535	9638.23	-35.29
1038.111	9632.88	-44.32
1038.688	9627.53	-43.48
1039.265	9622.19	-44
1039.842	9616.85	-42.2
1040.418	9611.52	-55.6
1040.995	9606.19	-35.16
1041.572	9600.88	-60.28
1042.148	9595.56	-48.46
1042.725	9590.26	-48.64
1043.302	9584.95	-38.13
1043.879	9579.66	-34.39
1044.455	9574.37	-41.01
1045.032	9569.09	-39.25
1045.609	9563.81	-40.09
1046.185	9558.54	-35.54
1046.762	9553.27	-33.83
1047.339	9548.01	-31.65
1047.915	9542.75	-33.34
1048.492	9537.51	-40.05
1049.069	9532.26	-38.56
1049.646	9527.02	-22.41
1050.222	9521.79	-37.13
1050.799	9516.57	-20.91
1051.376	9511.35	-50.14
1051.952	9506.13	-31.69
1052.529	9500.92	-65.55
1053.106	9495.72	-54.59
1053.683	9490.52	-30.4
1054.259	9485.33	-44.07
1054.836	9480.15	-45.33
1055.413	9474.97	-44.26
1055.989	9469.79	-33.93
1056.566	9464.62	-43.62
1057.143	9459.46	-46.72
1057.720	9454.30	-51.86
1058.296	9449.15	-38.24
1058.873	9444.00	-44.94
1059.450	9438.86	-47.84
1060.026	9433.73	-40.66
1060.603	9428.60	-38
1061.180	9423.47	-46.11
1061.757	9418.36	-29.99
1062.333	9413.24	-15.99
1062.910	9408.13	-47.56
1063.487	9403.03	-42.62
1064.063	9397.94	-73.79
1064.640	9392.85	-61.96
1065.217	9387.76	-55.61
1065.793	9382.68	-59.92
1066.370	9377.61	-59.46
1066.947	9372.54	-65.17
1067.524	9367.47	-42.12
1068.100	9362.42	-40.51
1068.677	9357.36	-35
1069.254	9352.32	-49.3
1069.830	9347.28	-21.31
1070.407	9342.24	-34.91
1070.984	9337.21	-22.99
1071.561	9332.18	-10.23
1072.137	9327.16	-36.47
1072.714	9322.15	-51.26
1073.291	9317.14	-29.69
1073.867	9312.14	-47.51
1074.444	9307.14	-61.84
1075.021	9302.15	-47.02
1075.598	9297.16	-24.73
1076.174	9292.18	-28.04
1076.751	9287.20	-45.28
1077.328	9282.23	-56.79
1077.904	9277.26	-63.37
1078.481	9272.30	-69.42
1079.058	9267.34	-63.61
1079.634	9262.39	-59.29
1080.211	9257.45	-51.31
1080.788	9252.51	-53
1081.365	9247.57	-67.03
1081.941	9242.65	-53.1
1082.518	9237.72	-43.88
1083.095	9232.80	-48.14
1083.671	9227.89	-59.95
1084.248	9222.98	-57.49
1084.825	9218.08	-62.74
1085.402	9213.18	-66.16
1085.978	9208.29	-62.92
1086.555	9203.40	-39.66
1087.132	9198.52	-30.95
1087.708	9193.64	-42.15
1088.285	9188.77	-32.64
1088.862	9183.90	-37.41
1089.439	9179.04	-38.19
1090.015	9174.18	-30.82
1090.592	9169.33	-45.74
1091.169	9164.49	-52.44
1091.745	9159.65	-23.24
1092.322	9154.81	-42.47
1092.899	9149.98	-12.34
1093.475	9145.15	-35.09
1094.052	9140.33	-36.71
1094.629	9135.52	-36.16
1095.206	9130.71	-40.5
1095.782	9125.90	-25.58
1096.359	9121.10	-36.51
1096.936	9116.30	-34.89
1097.512	9111.51	-43.54
1098.089	9106.73	-44.16
1098.666	9101.95	-49.85
1099.243	9097.17	-58.85
1099.819	9092.40	-9.803
