Wavelength [nm]	Wavenumbers [1/cm]	365nm_0002_30us_baselined
175.355	57027.17	-25.02
175.932	56840.24	-18.81
176.508	56654.52	-5.619
177.085	56470.02	0.1756
177.662	56286.71	-7.297
178.239	56104.59	10.27
178.815	55923.64	6.873
179.392	55743.86	-1.822
179.969	55565.23	-0.9013
180.545	55387.74	17.58
181.122	55211.38	18.38
181.699	55036.14	13.56
182.276	54862.01	4.574
182.852	54688.97	0.38
183.429	54517.03	7.87
184.006	54346.16	3.286
184.582	54176.36	10.98
185.159	54007.62	18.48
185.736	53839.93	25.67
186.312	53673.27	23.3
186.889	53507.65	49.17
187.466	53343.04	14.09
188.043	53179.44	23.86
188.619	53016.84	4.476
189.196	52855.24	2.678
189.773	52694.61	29.57
190.349	52534.96	20.49
190.926	52376.28	31.37
191.503	52218.55	20.87
192.080	52061.76	13.18
192.656	51905.92	21.17
193.233	51751.00	11.58
193.810	51597.01	19.16
194.386	51443.93	6.363
194.963	51291.76	-14.32
195.540	51140.48	-11.31
196.117	50990.10	-2.825
196.693	50840.59	-5.126
197.270	50691.96	-14.22
197.847	50544.20	-11.21
198.423	50397.30	-2.03
199.000	50251.24	-13.42
199.577	50106.03	-18.61
200.153	49961.66	-10.62
200.730	49818.12	-10.12
201.307	49675.40	4.172
201.884	49533.49	0.7692
202.460	49392.40	-6.927
203.037	49252.10	-15.42
203.614	49112.60	-21.38
204.190	48973.89	10.77
204.767	48835.96	-2.027
205.344	48698.80	-20.51
205.921	48562.42	-9.028
206.497	48426.79	-13.92
207.074	48291.92	-17.32
207.651	48157.80	-15.62
208.227	48024.42	-16.93
208.804	47891.78	-22.12
209.381	47759.87	-9.513
209.958	47628.68	-2.833
210.534	47498.21	-14.72
211.111	47368.46	-3.124
211.688	47239.41	0.8789
212.264	47111.07	2.371
212.841	46983.41	-8.325
213.418	46856.45	-31.84
213.994	46730.18	-44.71
214.571	46604.58	-33.23
215.148	46479.65	-54.78
215.725	46355.40	-26.53
216.301	46231.80	-37.72
216.878	46108.87	-29.62
217.455	45986.58	-27.93
218.031	45864.94	-34.12
218.608	45743.95	-31.72
219.185	45623.59	-24.13
219.762	45503.86	-30.33
220.338	45384.76	-38.72
220.915	45266.28	-41.32
221.492	45148.42	-29.12
222.068	45031.17	-26.63
222.645	44914.53	-34.12
223.222	44798.49	-37.71
223.799	44683.05	-28.72
224.375	44568.20	-23.53
224.952	44453.94	-38.22
225.529	44340.26	-29.21
226.105	44227.17	-15.83
226.682	44114.65	-27.22
227.259	44002.70	-37.21
227.835	43891.32	-29.73
228.412	43780.50	-40.02
228.989	43670.24	-41.32
229.566	43560.53	-36.62
230.142	43451.37	-31.32
230.719	43342.76	-25.02
231.296	43234.69	-32.93
231.872	43127.16	-41.61
232.449	43020.16	-23.93
233.026	42913.69	-46.09
233.603	42807.75	-24.32
234.179	42702.33	-18.73
234.756	42597.42	-25.22
235.333	42493.03	-30.81
235.909	42389.15	-24.13
236.486	42285.78	-30.92
237.063	42182.91	-35.61
237.640	42080.54	-24.41
238.216	41978.67	-14.72
238.793	41877.28	-13.82
239.370	41776.39	-22.52
239.946	41675.98	-17.03
240.523	41576.05	-23.72
241.100	41476.60	-24.37
241.676	41377.63	-58.41
242.253	41279.12	-38.91
242.830	41181.09	-6.528
243.407	41083.52	-23.33
243.983	40986.41	-26.4
244.560	40889.75	9.775
245.137	40793.56	-27.91
245.713	40697.81	-16.92
246.290	40602.51	-12.62
246.867	40507.66	-20.12
247.444	40413.25	-20.73
248.020	40319.28	-30.32
248.597	40225.75	-19.92
249.174	40132.64	-14.33
249.750	40039.97	-20.43
250.327	39947.73	-28.22
250.904	39855.91	-33.31
251.481	39764.51	-27.12
252.057	39673.53	-27.12
252.634	39582.96	-27.62
253.211	39492.81	-24.52
253.787	39403.06	-23.51
254.364	39313.73	2.875
254.941	39224.79	-12.02
255.518	39136.26	-6.533
256.094	39048.13	-18.22
256.671	38960.39	-21.72
257.248	38873.05	-9.737
257.824	38786.10	-22.43
258.401	38699.53	-29.12
258.978	38613.35	-6.509
259.554	38527.56	3.773
260.131	38442.14	-1.63
260.708	38357.11	-24.22
261.285	38272.44	-22.79
261.861	38188.16	11.46
262.438	38104.24	-19.22
263.015	38020.69	-20.43
263.591	37937.50	-23.51
264.168	37854.68	-4.32
264.745	37772.22	5.759
265.322	37690.12	-6.54
265.898	37608.37	-25.02
266.475	37526.98	-26.52
267.052	37445.94	-9.519
267.628	37365.24	-6.526
268.205	37284.90	-11.32
268.782	37204.90	-6.235
269.359	37125.24	-15.32
269.935	37045.93	-16.02
270.512	36966.95	-20.02
271.089	36888.30	-13.66
271.665	36809.99	-44.8
272.242	36732.02	-2.826
272.819	36654.37	-30.69
273.395	36577.05	-9.122
273.972	36500.06	-8.725
274.549	36423.39	-15.92
275.126	36347.04	-9.732
275.702	36271.01	-19.02
276.279	36195.29	-12.42
276.856	36119.90	-13.03
277.432	36044.81	-21.62
278.009	35970.04	-19.32
278.586	35895.58	-20.32
279.163	35821.42	-11.43
279.739	35747.57	-15.72
280.316	35674.03	-4.723
280.893	35600.78	-1.538
281.469	35527.84	-14.72
282.046	35455.20	-10.92
282.623	35382.85	-9.536
283.200	35310.79	-18.72
283.776	35239.03	-18.02
284.353	35167.56	-13.72
284.930	35096.38	11.07
285.506	35025.49	5.26
286.083	34954.88	-22.62
286.660	34884.56	-21.93
287.236	34814.52	-30.62
287.813	34744.76	-24.22
288.390	34675.28	-20.72
288.967	34606.07	1.637
289.543	34537.15	-36.31
290.120	34468.49	-16.82
290.697	34400.11	-19.91
291.273	34332.00	-11.82
291.850	34264.16	-5.323
292.427	34196.59	-7.822
293.004	34129.28	-16.43
293.580	34062.23	-23.22
294.157	33995.45	-26.92
294.734	33928.93	1.263
295.310	33862.67	-10.53
295.887	33796.67	-25.32
296.464	33730.93	-29.12
297.041	33665.44	-26.51
297.617	33600.20	-14.42
298.194	33535.22	-13.82
298.771	33470.49	-16.12
299.347	33406.01	-10.12
299.924	33341.77	-12.82
300.501	33277.78	-8.416
301.077	33214.04	-3.435
301.654	33150.54	-18.02
302.231	33087.28	-14.72
302.808	33024.27	-27.28
303.384	32961.49	8.575
303.961	32898.95	5.375
304.538	32836.65	-27.9
305.114	32774.59	-6.718
305.691	32712.75	-0.2341
306.268	32651.16	-41.01
306.845	32589.79	-26.71
307.421	32528.65	-9.43
307.998	32467.74	-23.22
308.575	32407.06	-39.89
309.151	32346.61	-12.84
309.728	32286.38	-36.42
310.305	32226.38	-22.93
310.882	32166.59	-27.82
311.458	32107.03	-27.02
312.035	32047.69	-21.32
312.612	31988.57	-24.12
313.188	31929.67	-23.23
313.765	31870.98	-26.92
314.342	31812.51	-30.42
314.918	31754.25	-28.12
315.495	31696.20	-26.42
316.072	31638.37	-20.42
316.649	31580.75	-29.63
317.225	31523.33	-36.41
317.802	31466.13	-18.42
318.379	31409.13	-47.5
318.955	31352.34	-27.8
319.532	31295.75	-2.226
320.109	31239.37	-12.82
320.686	31183.19	-19.03
321.262	31127.21	-24.53
321.839	31071.44	-29.82
322.416	31015.86	-19.91
322.992	30960.48	-9.013
323.569	30905.30	3.968
324.146	30850.31	-35.41
324.723	30795.52	-10.23
325.299	30740.93	-15.22
325.876	30686.52	-17.42
326.453	30632.31	-17.22
327.029	30578.29	-16.63
327.606	30524.46	-24.02
328.183	30470.82	-23.19
328.760	30417.37	1.577
329.336	30364.11	1.674
329.913	30311.03	-6.222
330.490	30258.14	4.081
331.066	30205.43	7.476
331.643	30152.90	4.578
332.220	30100.56	9.379
332.796	30048.40	10.87
333.373	29996.41	7.778
333.950	29944.61	9.377
334.527	29892.99	9.973
335.103	29841.54	5.486
335.680	29790.28	22.08
336.257	29739.18	5.481
336.833	29688.26	8.164
337.410	29637.52	-9.32
337.987	29586.95	1.074
338.564	29536.55	32.97
339.140	29486.32	21.27
339.717	29436.27	10.98
340.294	29386.38	17.67
340.870	29336.66	7.399
341.447	29287.11	39.37
342.024	29237.73	15.69
342.601	29188.51	27.47
343.177	29139.46	18.98
343.754	29090.58	24.48
344.331	29041.85	37.68
344.907	28993.29	42.68
345.484	28944.90	42.98
346.061	28896.66	56.49
346.637	28848.58	63.17
347.214	28800.67	57.58
347.791	28752.91	55.78
348.368	28705.31	66.22
348.944	28657.87	105
349.521	28610.58	136.9
350.098	28563.45	142.1
350.674	28516.48	164.3
351.251	28469.66	187.6
351.828	28422.99	242.4
352.405	28376.48	340.1
352.981	28330.12	489.7
353.558	28283.90	750.8
354.135	28237.84	1119
354.711	28191.93	1614
355.288	28146.17	2240
355.865	28100.56	3000
356.442	28055.09	3931
357.018	28009.77	5089
357.595	27964.60	6473
358.172	27919.57	8113
358.748	27874.69	1.009E4
359.325	27829.95	1.251E4
359.902	27785.36	1.548E4
360.478	27740.91	1.889E4
361.055	27696.60	2.293E4
361.632	27652.43	2.709E4
362.209	27608.40	3.106E4
362.785	27564.51	3.406E4
363.362	27520.76	3.56E4
363.939	27477.15	3.566E4
364.515	27433.68	3.462E4
365.092	27390.34	3.282E4
365.669	27347.15	3.064E4
366.246	27304.08	2.825E4
366.822	27261.16	2.573E4
367.399	27218.37	2.324E4
367.976	27175.71	2.079E4
368.552	27133.18	1.846E4
369.129	27090.79	1.64E4
369.706	27048.53	1.45E4
370.283	27006.41	1.273E4
370.859	26964.41	1.113E4
371.436	26922.54	9726
372.013	26880.81	8437
372.589	26839.20	7302
373.166	26797.72	6320
373.743	26756.37	5459
374.319	26715.15	4767
374.896	26674.05	4169
375.473	26633.08	3697
376.050	26592.24	3270
376.626	26551.52	2971
377.203	26510.92	2672
377.780	26470.45	2405
378.356	26430.10	2186
378.933	26389.88	1993
379.510	26349.78	1834
380.087	26309.80	1692
380.663	26269.94	1559
381.240	26230.20	1430
381.817	26190.58	1305
382.393	26151.08	1165
382.970	26111.70	1071
383.547	26072.44	963.8
384.124	26033.29	873.7
384.700	25994.26	788.7
385.277	25955.35	700.8
385.854	25916.56	620.9
386.430	25877.88	555.1
387.007	25839.32	511.1
387.584	25800.87	481.1
388.160	25762.54	449.5
388.737	25724.32	407.6
389.314	25686.21	390.1
389.891	25648.22	340.7
390.467	25610.34	298.2
391.044	25572.57	296.8
391.621	25534.91	286.3
392.197	25497.36	245.3
392.774	25459.92	230.4
393.351	25422.59	199.1
393.928	25385.38	192.9
394.504	25348.27	154.4
395.081	25311.27	147.1
395.658	25274.37	152.4
396.234	25237.59	119.1
396.811	25200.91	130
397.388	25164.33	120.7
397.965	25127.87	100.4
398.541	25091.51	114.6
399.118	25055.25	79.08
399.695	25019.10	88.27
400.271	24983.05	79.18
400.848	24947.11	78.58
401.425	24911.27	69.88
402.002	24875.53	51.87
402.578	24839.89	46.78
403.155	24804.36	49.28
403.732	24768.93	56.18
404.308	24733.60	55.17
404.885	24698.37	36.28
405.462	24663.24	21.68
406.038	24628.21	16.17
406.615	24593.28	11.78
407.192	24558.45	19.88
407.769	24523.71	21.46
408.345	24489.08	8.181
408.922	24454.54	16.28
409.499	24420.10	24.26
410.075	24385.76	12.27
410.652	24351.51	6.078
411.229	24317.36	10.68
411.806	24283.31	16.96
412.382	24249.35	3.372
412.959	24215.48	-7.022
413.536	24181.71	-6.119
414.112	24148.03	-3.306
414.689	24114.45	20.97
415.266	24080.96	5.382
415.843	24047.57	2.179
416.419	24014.26	4.567
416.996	23981.05	-21.32
417.573	23947.93	-16.54
418.149	23914.90	-33.71
418.726	23881.96	-19.92
419.303	23849.12	-9.327
419.879	23816.36	-3.238
420.456	23783.69	-21.61
421.033	23751.11	2.673
421.610	23718.62	-6.318
422.186	23686.23	-2.035
422.763	23653.91	-24.92
423.340	23621.69	-9.729
423.916	23589.55	-15.02
424.493	23557.51	-8.122
425.070	23525.55	-7.023
425.647	23493.67	-3.718
426.223	23461.88	1.381
426.800	23430.18	9.677
427.377	23398.56	2.962
427.953	23367.03	-9.921
428.530	23335.58	-7.422
429.107	23304.22	-3.724
429.684	23272.94	-15.43
430.260	23241.75	-25.32
430.837	23210.64	-10.72
431.414	23179.61	-2.016
431.990	23148.66	4.368
432.567	23117.80	-10.12
433.144	23087.02	-6.724
433.720	23056.32	14.55
434.297	23025.71	-12.62
434.874	22995.17	-0.7248
435.451	22964.72	20.95
436.027	22934.34	-4.117
436.604	22904.05	6.077
437.181	22873.83	-2.219
437.757	22843.70	1.283
438.334	22813.65	8.777
438.911	22783.67	6.078
439.488	22753.77	3.181
440.064	22723.95	6.479
440.641	22694.21	9.877
441.218	22664.55	15.56
441.794	22634.96	3.572
442.371	22605.45	-3.621
442.948	22576.02	3.375
443.525	22546.67	10.38
444.101	22517.39	9.074
444.678	22488.19	0.678
445.255	22459.06	-2.311
445.831	22430.01	8.17
446.408	22401.03	-3.123
446.985	22372.13	-8.721
447.561	22343.30	-2.921
448.138	22314.54	-1.125
448.715	22285.87	-6.222
449.292	22257.26	4.679
449.868	22228.73	6.276
450.445	22200.27	3.477
451.022	22171.88	3.677
451.598	22143.57	-6.315
452.175	22115.32	3.081
452.752	22087.15	16.27
453.329	22059.05	5.377
453.905	22031.03	5.478
454.482	22003.07	6.377
455.059	21975.19	-2.918
455.635	21947.37	0.7844
456.212	21919.63	10.78
456.789	21891.95	20.87
457.366	21864.35	9.075
457.942	21836.81	6.574
458.519	21809.35	-0.7222
459.096	21781.95	3.789
459.672	21754.62	14.28
460.249	21727.37	13.38
460.826	21700.17	9.179
461.403	21673.05	-8.516
461.979	21646.00	-1.027
462.556	21619.01	-12.62
463.133	21592.09	8.882
463.709	21565.23	13.45
464.286	21538.45	-32.22
464.863	21511.73	20.05
465.439	21485.07	14.27
466.016	21458.48	2.272
466.593	21431.96	-16.32
467.170	21405.50	-4.417
467.746	21379.11	1.579
468.323	21352.78	4.677
468.900	21326.52	9.275
469.476	21300.32	3.168
470.053	21274.19	-9.426
470.630	21248.12	-25.42
471.207	21222.12	-9.219
471.783	21196.17	-5.519
472.360	21170.30	3.177
472.937	21144.48	-5.431
473.513	21118.73	-12.13
474.090	21093.04	-17.72
474.667	21067.41	-3.628
475.244	21041.84	0.06559
475.820	21016.34	-13.12
476.397	20990.90	-4.124
476.974	20965.52	0.8876
477.550	20940.20	10.28
478.127	20914.94	9.675
478.704	20889.75	-9.715
479.280	20864.61	-9.63
479.857	20839.53	-18.32
480.434	20814.52	-20.42
481.011	20789.56	-13.51
481.587	20764.67	0.5778
482.164	20739.83	1.577
482.741	20715.05	-0.9216
483.317	20690.34	-9.622
483.894	20665.68	-8.025
484.471	20641.08	-18.12
485.048	20616.54	-11.01
485.624	20592.05	5.382
486.201	20567.63	15.88
486.778	20543.26	-17.39
487.354	20518.95	8.071
487.931	20494.70	-1.823
488.508	20470.50	-4.922
489.085	20446.36	-21.42
489.661	20422.28	-12.91
490.238	20398.26	13.67
490.815	20374.29	2.038
491.391	20350.38	-33.32
491.968	20326.52	-35.02
492.545	20302.72	12.36
493.121	20278.98	-12.81
493.698	20255.29	-1.227
494.275	20231.66	-14.92
494.852	20208.08	-16.21
495.428	20184.55	-5.525
496.005	20161.09	-9.322
496.582	20137.67	0.3727
497.158	20114.31	-12.92
497.735	20091.01	-15.72
498.312	20067.75	2.973
498.889	20044.56	1.069
499.465	20021.41	-7.223
500.042	19998.32	-7.123
500.619	19975.28	-26.01
501.195	19952.30	-23.43
501.772	19929.37	-27.52
502.349	19906.49	-16.83
502.926	19883.66	-7.025
503.502	19860.89	-9.921
504.079	19838.16	-5.723
504.656	19815.49	-20.74
505.232	19792.87	-39.52
505.809	19770.31	-41.72
506.386	19747.79	-30.63
506.962	19725.33	-10.22
507.539	19702.91	-7.322
508.116	19680.55	-6.023
508.693	19658.24	-1.438
509.269	19635.98	-16.22
509.846	19613.76	-18.32
510.423	19591.60	-2.63
510.999	19569.49	4.26
511.576	19547.43	-17.42
512.153	19525.42	-20.82
512.730	19503.46	-23.22
513.306	19481.55	-23.12
513.883	19459.68	-18.62
514.460	19437.87	-22.72
515.036	19416.10	-1.529
515.613	19394.39	-10.42
516.190	19372.72	-4.525
516.767	19351.10	2.97
517.343	19329.53	-4.827
517.920	19308.00	-15.42
518.497	19286.53	-18.6
519.073	19265.10	5.573
519.650	19243.72	-1.523
520.227	19222.39	-2.023
520.803	19201.10	-5.399
521.380	19179.86	22.86
521.957	19158.67	-13.62
522.534	19137.52	-3.237
523.110	19116.43	-16.22
523.687	19095.37	-14.72
524.264	19074.37	-1.529
524.840	19053.41	21.86
525.417	19032.50	5.272
525.994	19011.63	-13.92
526.571	18990.81	-19.63
527.147	18970.03	-23.61
527.724	18949.30	-3.623
528.301	18928.61	9.67
528.877	18907.97	9.865
529.454	18887.38	-6.723
530.031	18866.83	-6.723
530.608	18846.32	4.667
531.184	18825.86	-6.617
531.761	18805.44	6.676
532.338	18785.07	-9.513
532.914	18764.74	-1.917
533.491	18744.46	7.678
534.068	18724.21	10.48
534.645	18704.02	20.66
535.221	18683.86	0.5787
535.798	18663.75	4.577
536.375	18643.69	17.25
536.951	18623.66	-6.921
537.528	18603.68	-3.421
538.105	18583.74	13.97
538.681	18563.85	19.88
539.258	18543.99	28.88
539.835	18524.18	37.18
540.412	18504.41	14.87
540.988	18484.69	5.388
541.565	18465.00	26.88
542.142	18445.36	22.78
542.718	18425.76	16.18
543.295	18406.20	20.98
543.872	18386.68	16.88
544.449	18367.21	16.08
545.025	18347.77	21.57
545.602	18328.38	7.978
546.179	18309.03	19.47
546.755	18289.71	28.37
547.332	18270.44	21.68
547.909	18251.21	13.98
548.486	18232.02	12.28
549.062	18212.87	11.98
549.639	18193.76	13.58
550.216	18174.69	15.3
550.792	18155.66	37.27
551.369	18136.67	21.68
551.946	18117.72	22.68
552.522	18098.81	37.45
553.099	18079.94	8.68
553.676	18061.11	16.88
554.253	18042.32	43.36
554.829	18023.56	28.67
555.406	18004.85	19.48
555.983	17986.17	25.17
556.559	17967.53	45.47
557.136	17948.93	29.58
557.713	17930.37	37.18
558.290	17911.85	24.09
558.866	17893.37	38.38
559.443	17874.92	42.08
560.020	17856.52	61.17
560.596	17838.15	34.26
561.173	17819.81	16.08
561.750	17801.52	43.27
562.327	17783.26	8.8
562.903	17765.04	33.87
563.480	17746.86	16.78
564.057	17728.72	22.97
564.633	17710.61	19.17
565.210	17692.54	6.478
565.787	17674.50	17.87
566.363	17656.51	22.48
566.940	17638.54	24.08
567.517	17620.62	31.08
568.094	17602.73	36.47
568.670	17584.88	34.18
569.247	17567.07	39.08
569.824	17549.29	37.58
570.400	17531.54	23.38
570.977	17513.84	32.18
571.554	17496.16	43.37
572.131	17478.53	35.28
572.707	17460.93	37.96
573.284	17443.36	9.778
573.861	17425.83	9.178
574.437	17408.34	19.78
575.014	17390.88	20.67
575.591	17373.45	4.282
576.168	17356.06	1.688
576.744	17338.71	13.78
577.321	17321.39	25.88
577.898	17304.10	20.78
578.474	17286.85	17.87
579.051	17269.63	7.279
579.628	17252.45	19.07
580.204	17235.30	33.68
580.781	17218.19	31.98
581.358	17201.11	28.98
581.935	17184.06	25.76
582.511	17167.05	10.28
583.088	17150.07	7.878
583.665	17133.12	20.37
584.241	17116.21	15.97
584.818	17099.33	0.3747
585.395	17082.49	-9.121
585.972	17065.67	-9.398
586.548	17048.89	15.78
587.125	17032.15	26.68
587.702	17015.43	7.387
588.278	16998.75	3.475
588.855	16982.11	-0.1244
589.432	16965.49	-8.02
590.009	16948.91	-3.717
590.585	16932.36	2.367
591.162	16915.84	-20.82
591.739	16899.35	-6.231
592.315	16882.90	3.274
592.892	16866.48	-1.021
593.469	16850.09	8.474
594.045	16833.73	15.97
594.622	16817.40	2.376
595.199	16801.11	-1.022
595.776	16784.84	1.875
596.352	16768.61	-0.5196
596.929	16752.41	5.077
597.506	16736.24	3.278
598.082	16720.10	-6.021
598.659	16704.00	-3.422
599.236	16687.92	0.1764
599.813	16671.87	-3.243
600.389	16655.86	-23.62
600.966	16639.88	-11.12
601.543	16623.92	-9.923
602.119	16608.00	6.684
602.696	16592.11	16.07
603.273	16576.25	-4.617
603.850	16560.42	-18.4
604.426	16544.62	5.381
605.003	16528.84	14.68
605.580	16513.10	5.083
606.156	16497.39	-10.61
606.733	16481.71	12.78
607.310	16466.06	22.47
607.887	16450.44	29.26
608.463	16434.85	5.179
609.040	16419.28	8.777
609.617	16403.75	20.27
610.193	16388.25	6.278
610.770	16372.77	7.176
611.347	16357.33	-5.717
611.923	16341.91	-10.92
612.500	16326.53	-6.123
613.077	16311.17	-5.823
613.654	16295.84	5.251
614.230	16280.54	-20.51
614.807	16265.27	8.677
615.384	16250.02	-2.317
615.960	16234.81	-9.619
616.537	16219.62	-4.121
617.114	16204.47	2.176
617.691	16189.34	1.779
618.267	16174.24	3.972
618.844	16159.16	-8.222
619.421	16144.12	0.1725
619.997	16129.10	6.655
620.574	16114.11	-27.02
621.151	16099.15	13.96
621.728	16084.22	17.37
622.304	16069.31	9.679
622.881	16054.43	15.48
623.458	16039.58	-9.407
624.034	16024.76	9.677
624.611	16009.96	9.278
625.188	15995.19	21.87
625.764	15980.45	15.09
626.341	15965.74	24.87
626.918	15951.05	-9.416
627.495	15936.39	9.264
628.071	15921.76	-0.6173
628.648	15907.15	9.677
629.225	15892.57	-4.916
629.801	15878.02	-13.11
630.378	15863.49	3.476
630.955	15848.99	-0.9216
631.532	15834.52	-2.106
632.108	15820.07	15.68
632.685	15805.65	14.38
633.262	15791.26	15.78
633.838	15776.89	0.7774
634.415	15762.55	0.9806
634.992	15748.23	20.17
635.569	15733.94	26.98
636.145	15719.68	24.67
636.722	15705.44	17.58
637.299	15691.23	4.585
637.875	15677.04	27.16
638.452	15662.88	4.776
639.029	15648.75	-4.519
639.605	15634.64	37.97
640.182	15620.55	26.17
640.759	15606.49	16.18
641.336	15592.46	15.58
641.912	15578.45	7.887
642.489	15564.47	25.98
643.066	15550.51	8.985
643.642	15536.58	17.57
644.219	15522.67	7.675
644.796	15508.78	-0.4208
645.373	15494.93	0.3766
645.949	15481.09	14.98
646.526	15467.28	21.58
647.103	15453.50	14.28
647.679	15439.74	8.578
648.256	15426.00	9.776
648.833	15412.29	3.779
649.410	15398.60	-16.41
649.986	15384.94	-0.7177
650.563	15371.30	11.58
651.140	15357.69	-12.11
651.716	15344.10	0.6801
652.293	15330.53	5.176
652.870	15316.99	-7.718
653.446	15303.47	-11.61
654.023	15289.98	1.082
654.600	15276.51	14.77
655.177	15263.06	14.68
655.753	15249.64	0.2712
656.330	15236.24	-10.42
656.907	15222.86	-0.1274
657.483	15209.51	-7.607
658.060	15196.18	13.17
658.637	15182.87	-1.519
659.214	15169.59	-0.2237
659.790	15156.33	2.176
660.367	15143.09	-0.8227
660.944	15129.88	2.076
661.520	15116.69	-5.021
662.097	15103.52	-2.624
662.674	15090.38	-8.521
663.251	15077.26	-14.33
663.827	15064.16	-22.91
664.404	15051.08	-1.425
664.981	15038.03	14.57
665.557	15025.00	-2.618
666.134	15011.99	4.477
666.711	14999.01	3.178
667.287	14986.04	5.179
667.864	14973.10	6.671
668.441	14960.19	-9.92
669.018	14947.29	-0.5289
669.594	14934.42	-2.321
670.171	14921.56	1.477
670.748	14908.73	2.177
671.324	14895.93	-14.72
671.901	14883.14	-17.12
672.478	14870.38	-19.12
673.055	14857.64	-11.93
673.631	14844.92	-1.822
674.208	14832.22	-1.223
674.785	14819.54	-6.92
675.361	14806.89	-0.4228
675.938	14794.25	-0.4235
676.515	14781.64	-3.622
677.092	14769.05	7.369
677.668	14756.48	-1.723
678.245	14743.94	-1.423
678.822	14731.41	1.276
679.398	14718.90	-10.12
679.975	14706.42	-1.422
680.552	14693.96	1.176
681.129	14681.52	-6.51
681.705	14669.10	7.575
682.282	14656.70	0.9781
682.859	14644.32	4.475
683.435	14631.96	-6.331
684.012	14619.63	-21.12
684.589	14607.31	-23.02
685.165	14595.01	1.973
685.742	14582.74	-3.225
686.319	14570.49	-10.32
686.896	14558.25	-10.72
687.472	14546.04	-10.42
688.049	14533.85	-5.123
688.626	14521.68	-1.724
689.202	14509.53	-1.821
689.779	14497.39	-0.02461
690.356	14485.28	-7.921
690.933	14473.19	1.87
691.509	14461.12	5.975
692.086	14449.07	0.4775
692.663	14437.04	-12.32
693.239	14425.03	-20.32
693.816	14413.04	-17.02
694.393	14401.07	-16.42
694.970	14389.12	1.67
695.546	14377.19	-5.925
696.123	14365.28	-11.82
696.700	14353.39	-18.82
697.276	14341.52	-14.12
697.853	14329.66	-2.623
698.430	14317.83	-1.123
699.006	14306.02	-0.732
699.583	14294.23	-12.03
700.160	14282.45	-22.32
700.737	14270.70	-30.92
701.313	14258.96	-33.31
701.890	14247.25	-7.323
702.467	14235.55	-15.22
703.043	14223.87	-19.12
703.620	14212.21	-10.82
704.197	14200.57	-6.524
704.774	14188.95	-5.424
705.350	14177.35	-11.62
705.927	14165.77	1.177
706.504	14154.21	-16.11
707.080	14142.66	-19.31
707.657	14131.14	-7.324
708.234	14119.63	-12.82
708.811	14108.14	-6.228
709.387	14096.67	-10.22
709.964	14085.22	-4.223
710.541	14073.79	-14.52
711.117	14062.38	-13.72
711.694	14050.98	-11.52
712.271	14039.60	-6.325
712.847	14028.25	-0.9042
713.424	14016.91	21.38
714.001	14005.58	16.78
714.578	13994.28	19.78
715.154	13983.00	2.47
715.731	13971.73	-10.22
716.308	13960.48	-5.625
716.884	13949.25	-11.41
717.461	13938.04	1.179
718.038	13926.84	7.576
718.615	13915.67	4.08
719.191	13904.51	-17.32
719.768	13893.37	-3.223
720.345	13882.24	3.074
720.921	13871.14	-4.724
721.498	13860.05	-6.92
722.075	13848.98	5.173
722.652	13837.93	-3.016
723.228	13826.89	-8.118
723.805	13815.88	3.576
724.382	13804.88	-1.12
724.958	13793.90	-2.423
725.535	13782.93	-3.525
726.112	13771.98	-17.92
726.688	13761.05	-6.421
727.265	13750.14	-4.023
727.842	13739.25	-4.323
728.419	13728.37	-16.91
728.995	13717.51	-1.33
729.572	13706.67	-14.42
730.149	13695.84	6.568
730.725	13685.03	-3.334
731.302	13674.24	-17.62
731.879	13663.46	5.072
732.456	13652.71	14.57
733.032	13641.96	-8.717
733.609	13631.24	3.577
734.186	13620.53	11.27
734.762	13609.84	12.58
735.339	13599.17	12.37
735.916	13588.51	-3.018
736.493	13577.87	-10.02
737.069	13567.25	-0.8297
737.646	13556.64	-17.12
738.223	13546.05	-4.53
738.799	13535.47	15.75
739.376	13524.92	-19.92
739.953	13514.38	23.96
740.529	13503.85	2.296
741.106	13493.34	18.57
741.683	13482.85	4.379
742.260	13472.38	1.579
742.836	13461.92	15.97
743.413	13451.47	5.077
743.990	13441.05	-2.12
744.566	13430.63	-4.23
745.143	13420.24	-13.33
745.720	13409.86	-23.62
746.297	13399.50	-11.93
746.873	13389.15	1.874
747.450	13378.82	-4.623
748.027	13368.51	2.174
748.603	13358.21	3.269
749.180	13347.92	-7.722
749.757	13337.66	-2.324
750.334	13327.41	22.86
750.910	13317.17	28.66
751.487	13306.95	-5.421
752.064	13296.75	4.072
752.640	13286.56	-9.219
753.217	13276.38	-4.121
753.794	13266.23	6.174
754.371	13256.09	12.87
754.947	13245.96	7.366
755.524	13235.85	-22.72
756.101	13225.75	-1.636
756.677	13215.67	-1.525
757.254	13205.61	-4.522
757.831	13195.56	4.174
758.407	13185.52	-7.119
758.984	13175.51	-1.923
759.561	13165.50	-1.823
760.138	13155.51	9.269
760.714	13145.54	15.27
761.291	13135.58	3.877
761.868	13125.64	-1.72
762.444	13115.71	7.477
763.021	13105.80	7.076
763.598	13095.90	-0.02086
764.175	13086.02	-13.21
764.751	13076.15	-7.717
765.328	13066.29	5.977
765.905	13056.46	-3.018
766.481	13046.63	7.678
767.058	13036.82	8.677
767.635	13027.03	4.579
768.212	13017.25	16.07
768.788	13007.48	11.07
769.365	12997.73	-3.321
769.942	12988.00	2.274
770.518	12978.28	-0.3268
771.095	12968.57	-6.922
771.672	12958.88	-2.724
772.248	12949.20	-2.123
772.825	12939.54	-7.623
773.402	12929.89	-9.023
773.979	12920.25	-6.524
774.555	12910.63	-3.327
775.132	12901.03	-11.92
775.709	12891.44	-21.42
776.285	12881.86	-14.61
776.862	12872.30	6.476
777.439	12862.75	2.178
778.016	12853.21	-5.217
778.592	12843.69	5.178
779.169	12834.19	7.477
779.746	12824.69	12.37
780.322	12815.22	15.77
780.899	12805.75	2.579
781.476	12796.30	14.67
782.053	12786.86	10.98
782.629	12777.44	-0.1196
783.206	12768.03	7.676
783.783	12758.64	3.38
784.359	12749.26	0.6787
784.936	12739.89	3.077
785.513	12730.54	-1.421
786.089	12721.20	6.67
786.666	12711.87	11.07
787.243	12702.56	3.978
787.820	12693.26	5.776
788.396	12683.98	6.279
788.973	12674.70	9.277
789.550	12665.45	5.179
790.126	12656.20	1.192
790.703	12646.97	20.77
791.280	12637.75	10.58
791.857	12628.55	12.08
792.433	12619.36	0.8664
793.010	12610.18	-21.52
793.587	12601.02	-7.33
794.163	12591.87	19.16
794.740	12582.73	-5.518
795.317	12573.61	20.67
795.894	12564.49	12.28
796.470	12555.40	-1.723
797.047	12546.31	-1.623
797.624	12537.24	9.87
798.200	12528.18	18.49
798.777	12519.14	30.87
799.354	12510.11	9.185
799.930	12501.09	7.878
800.507	12492.08	-8.923
801.084	12483.09	-10.72
801.661	12474.11	14.46
802.237	12465.14	20.87
802.814	12456.18	12.88
803.391	12447.24	5.68
803.967	12438.31	1.881
804.544	12429.40	25.18
805.121	12420.50	35.17
805.698	12411.60	22.69
806.274	12402.73	26.68
806.851	12393.86	26.98
807.428	12385.01	18.78
808.004	12376.17	14.08
808.581	12367.34	22.08
809.158	12358.53	13.18
809.735	12349.73	25.37
810.311	12340.94	29.77
810.888	12332.16	19.38
811.465	12323.40	16.38
812.041	12314.64	6.19
812.618	12305.90	26.18
813.195	12297.18	24.98
813.771	12288.46	16.68
814.348	12279.76	15.58
814.925	12271.07	25.08
815.502	12262.39	19.58
816.078	12253.73	33.47
816.655	12245.07	21.78
817.232	12236.43	6.484
817.808	12227.80	6.178
818.385	12219.19	20.38
818.962	12210.58	25.88
819.539	12201.99	21.98
820.115	12193.41	22.38
820.692	12184.84	22.78
821.269	12176.28	30.37
821.845	12167.74	27.86
822.422	12159.21	-0.7177
822.999	12150.69	22.07
823.576	12142.18	43.96
824.152	12133.68	18.28
824.729	12125.20	31.28
825.306	12116.72	18.98
825.882	12108.26	10.79
826.459	12099.81	23.28
827.036	12091.38	31.17
827.613	12082.95	61.15
828.189	12074.54	19.18
828.766	12066.13	33.78
829.343	12057.74	26.18
829.919	12049.36	30.78
830.496	12041.00	34.18
831.073	12032.64	42.47
831.649	12024.30	29.79
832.226	12015.96	33.38
832.803	12007.64	28.48
833.380	11999.33	49.16
833.956	11991.04	22.98
834.533	11982.75	22.78
835.110	11974.47	17.98
835.686	11966.21	6.189
836.263	11957.96	20.98
836.840	11949.72	26.88
837.417	11941.49	39.17
837.993	11933.27	14.48
838.570	11925.06	28.08
839.147	11916.87	27.68
839.723	11908.68	22.77
840.300	11900.51	15.88
840.877	11892.35	26.37
841.454	11884.20	28.08
842.030	11876.06	8.975
842.607	11867.93	2.678
843.184	11859.81	5.076
843.760	11851.71	14.78
844.337	11843.61	15.78
844.914	11835.53	2.483
845.490	11827.45	5.574
846.067	11819.39	18.38
846.644	11811.34	12.38
847.221	11803.30	15.97
847.797	11795.27	21.78
848.374	11787.25	18.48
848.951	11779.25	8.582
849.527	11771.25	0.2853
850.104	11763.26	-0.3221
850.681	11755.29	2.377
851.258	11747.33	-3.019
851.834	11739.37	14.17
852.411	11731.43	-0.6223
852.988	11723.50	22.36
853.564	11715.58	2.563
854.141	11707.67	-17.52
854.718	11699.77	24.36
855.295	11691.88	-9.095
855.871	11684.00	0.8811
856.448	11676.13	10.38
857.025	11668.28	7.179
857.601	11660.43	15.07
858.178	11652.59	-3.222
858.755	11644.77	6.973
859.331	11636.95	27.96
859.908	11629.15	-0.5258
860.485	11621.35	-9.521
861.062	11613.57	4.068
861.638	11605.80	19.58
862.215	11598.03	21.38
862.792	11590.28	10.98
863.368	11582.54	21.37
863.945	11574.81	11.28
864.522	11567.09	22.97
865.099	11559.38	13.68
865.675	11551.68	19.38
866.252	11543.99	27.28
866.829	11536.30	5.789
867.405	11528.63	7.276
867.982	11520.97	15.28
868.559	11513.32	21.18
869.136	11505.69	14.78
869.712	11498.06	4.68
870.289	11490.44	10.78
870.866	11482.83	20.77
871.442	11475.23	23.27
872.019	11467.64	8.279
872.596	11460.06	20.27
873.172	11452.49	15.28
873.749	11444.93	16.37
874.326	11437.38	-0.4201
874.903	11429.84	-0.5227
875.479	11422.31	-3.708
876.056	11414.79	23.18
876.633	11407.29	27.98
877.209	11399.79	32.47
877.786	11392.30	21.87
878.363	11384.82	7.78
878.940	11377.35	9.576
879.516	11369.89	9.993
880.093	11362.44	41.08
880.670	11354.99	20.49
881.246	11347.56	30.37
881.823	11340.14	19.08
882.400	11332.73	28.07
882.977	11325.33	33.07
883.553	11317.94	27.28
884.130	11310.55	29.98
884.707	11303.18	9.189
885.283	11295.82	21.87
885.860	11288.46	15.78
886.437	11281.12	18.48
887.014	11273.79	9.985
887.590	11266.46	13.98
888.167	11259.14	19.38
888.744	11251.84	3.887
889.320	11244.54	20.98
889.897	11237.25	26.38
890.474	11229.98	27.38
891.050	11222.71	19.88
891.627	11215.45	6.179
892.204	11208.20	12.78
892.781	11200.96	9.18
893.357	11193.73	8.98
893.934	11186.51	14.08
894.511	11179.30	14.98
895.087	11172.09	38.55
895.664	11164.90	26.58
896.241	11157.72	22.38
896.818	11150.54	20.08
897.394	11143.37	16.28
897.971	11136.22	21.08
898.548	11129.07	15.18
899.124	11121.93	15.98
899.701	11114.80	31.48
900.278	11107.68	28.68
900.855	11100.57	22.68
901.431	11093.47	37.87
902.008	11086.38	22.98
902.585	11079.29	4.589
903.161	11072.22	30.57
903.738	11065.15	25.18
904.315	11058.10	24.18
904.891	11051.05	27.97
905.468	11044.01	25.78
906.045	11036.98	24.98
906.622	11029.96	18.08
907.198	11022.95	21.98
907.775	11015.95	27.48
908.352	11008.95	24.68
908.928	11001.97	30.47
909.505	10994.99	36.88
910.082	10988.02	40.78
910.659	10981.06	37.28
911.235	10974.11	23.78
911.812	10967.17	19.58
912.389	10960.24	22.38
912.965	10953.32	43.06
913.542	10946.40	29.38
914.119	10939.50	23.28
914.696	10932.60	37.27
915.272	10925.71	30.68
915.849	10918.83	41.58
916.426	10911.96	5.5
917.002	10905.10	12.77
917.579	10898.24	4.581
918.156	10891.40	37.76
918.732	10884.56	32.48
919.309	10877.73	41.37
919.886	10870.91	31.88
920.463	10864.10	27.98
921.039	10857.30	39.86
921.616	10850.51	3.178
922.193	10843.72	18.67
922.769	10836.94	8.987
923.346	10830.17	14.88
923.923	10823.41	37.07
924.500	10816.66	47.97
925.076	10809.92	26.77
925.653	10803.18	20.68
926.230	10796.46	22.58
926.806	10789.74	20.78
927.383	10783.03	14.08
927.960	10776.33	13.28
928.537	10769.64	19.47
929.113	10762.95	24.38
929.690	10756.27	20.38
930.267	10749.61	-0.01042
930.843	10742.95	27.05
931.420	10736.29	23.28
931.997	10729.65	17.38
932.573	10723.02	24.97
933.150	10716.39	29.67
933.727	10709.77	22.88
934.304	10703.16	5.189
934.880	10696.56	23.38
935.457	10689.96	19.58
936.034	10683.38	32.67
936.610	10676.80	22.69
937.187	10670.23	23.97
937.764	10663.67	12.88
938.341	10657.11	24.77
938.917	10650.57	22.37
939.494	10644.03	10.38
940.071	10637.50	18.47
940.647	10630.98	37.36
941.224	10624.46	32.28
941.801	10617.96	27.28
942.378	10611.46	37.27
942.954	10604.97	19.28
943.531	10598.49	17.18
944.108	10592.01	29.37
944.684	10585.55	22.58
945.261	10579.09	19.48
945.838	10572.64	25.77
946.414	10566.19	37.57
946.991	10559.76	44.07
947.568	10553.33	27.18
948.145	10546.91	3.993
948.721	10540.50	31.67
949.298	10534.10	12.98
949.875	10527.70	4.281
950.451	10521.32	28.05
951.028	10514.94	4.483
951.605	10508.56	26.07
952.182	10502.20	24.58
952.758	10495.84	17.18
953.335	10489.49	21.88
953.912	10483.15	29.57
954.488	10476.82	16.19
955.065	10470.49	25.58
955.642	10464.17	17.58
956.219	10457.86	-0.5084
956.795	10451.56	10.28
957.372	10445.26	15.38
957.949	10438.97	15.48
958.525	10432.69	17.38
959.102	10426.42	21.48
959.679	10420.15	32.37
960.256	10413.90	30.48
960.832	10407.64	17.28
961.409	10401.40	16.78
961.986	10395.17	17.28
962.562	10388.94	14.08
963.139	10382.72	19.28
963.716	10376.50	8.682
964.292	10370.30	18.97
964.869	10364.10	14.98
965.446	10357.91	30.07
966.023	10351.72	-9.594
966.599	10345.55	37.67
967.176	10339.38	19.08
967.753	10333.22	25.27
968.329	10327.06	14.09
968.906	10320.92	33.08
969.483	10314.78	24.38
970.060	10308.65	11.99
970.636	10302.52	39.67
971.213	10296.40	24.68
971.790	10290.29	21.68
972.366	10284.19	21.68
972.943	10278.09	26.38
973.520	10272.00	28.38
974.097	10265.92	39.17
974.673	10259.85	29.97
975.250	10253.78	16.68
975.827	10247.72	8.782
976.403	10241.67	24.26
976.980	10235.62	23.38
977.557	10229.59	16.58
978.133	10223.55	36.46
978.710	10217.53	32.18
979.287	10211.51	26.98
979.864	10205.50	47.76
980.440	10199.50	26.68
981.017	10193.50	26.38
981.594	10187.51	5.287
982.170	10181.53	35.95
982.747	10175.56	25.77
983.324	10169.59	8.382
983.901	10163.63	22.37
984.477	10157.67	57.57
985.054	10151.73	42.18
985.631	10145.79	36.58
986.207	10139.86	46.97
986.784	10133.93	46.47
987.361	10128.01	24.88
987.938	10122.10	27.28
988.514	10116.19	43.58
989.091	10110.29	49.08
989.668	10104.40	37.08
990.244	10098.52	46.97
990.821	10092.64	29.58
991.398	10086.77	44.97
991.974	10080.90	30.39
992.551	10075.05	41.58
993.128	10069.20	37.18
993.705	10063.35	30.08
994.281	10057.52	37.57
994.858	10051.69	50.88
995.435	10045.86	37.58
996.011	10040.05	43.47
996.588	10034.24	41.88
997.165	10028.43	47.38
997.742	10022.64	35.79
998.318	10016.85	40.38
998.895	10011.06	38.28
999.472	10005.29	46.17
1000.048	9999.52	44.28
1000.625	9993.75	32.38
1001.202	9988.00	24.38
1001.779	9982.25	56.95
1002.355	9976.50	49.08
1002.932	9970.77	44.08
1003.509	9965.04	49.67
1004.085	9959.31	42.19
1004.662	9953.60	35.88
1005.239	9947.89	57.77
1005.815	9942.18	37.2
1006.392	9936.48	34.68
1006.969	9930.79	38.98
1007.546	9925.11	59.56
1008.122	9919.43	44.59
1008.699	9913.76	34.88
1009.276	9908.10	30.08
1009.852	9902.44	40.37
1010.429	9896.78	45.57
1011.006	9891.14	20.78
1011.583	9885.50	19.08
1012.159	9879.87	24.17
1012.736	9874.24	20.18
1013.313	9868.62	38.97
1013.889	9863.01	50.47
1014.466	9857.40	54.48
1015.043	9851.80	44.68
1015.620	9846.21	40.68
1016.196	9840.62	46.77
1016.773	9835.04	28.68
1017.350	9829.46	56.26
1017.926	9823.89	36
1018.503	9818.33	9.98
1019.080	9812.77	30.37
1019.656	9807.22	62.55
1020.233	9801.68	34.78
1020.810	9796.14	36.48
1021.387	9790.61	27.48
1021.963	9785.09	37.27
1022.540	9779.57	22.08
1023.117	9774.06	20.48
1023.693	9768.55	24.47
1024.270	9763.05	28.78
1024.847	9757.56	41.17
1025.424	9752.07	16.2
1026.000	9746.59	10.88
1026.577	9741.11	24.28
1027.154	9735.64	29.67
1027.730	9730.18	31.28
1028.307	9724.72	15.97
1028.884	9719.27	-2.118
1029.461	9713.83	22.26
1030.037	9708.39	33.97
1030.614	9702.95	9.679
1031.191	9697.53	32.46
1031.767	9692.11	1.71
1032.344	9686.69	1.978
1032.921	9681.28	9.175
1033.498	9675.88	14.17
1034.074	9670.49	9.481
1034.651	9665.10	20.88
1035.228	9659.71	17.28
1035.804	9654.33	13.08
1036.381	9648.96	1.778
1036.958	9643.59	15.27
1037.534	9638.23	13.18
1038.111	9632.88	5.382
1038.688	9627.53	21.67
1039.265	9622.19	20.28
1039.841	9616.85	23.77
1040.418	9611.52	19.28
1040.995	9606.20	38.87
1041.571	9600.88	19.1
1042.148	9595.56	4.879
1042.725	9590.26	12.18
1043.302	9584.96	12.98
1043.878	9579.66	22.96
1044.455	9574.37	25.48
1045.032	9569.09	26.08
1045.608	9563.81	22.48
1046.185	9558.54	28.98
1046.762	9553.27	28.48
1047.339	9548.01	12.69
1047.915	9542.76	26.68
1048.492	9537.51	32.88
1049.069	9532.26	20.58
1049.645	9527.03	34.66
1050.222	9521.80	46.78
1050.799	9516.57	42.38
1051.375	9511.35	27.19
1051.952	9506.14	27.38
1052.529	9500.93	41.17
1053.106	9495.72	23.79
1053.682	9490.53	23.18
1054.259	9485.34	29.08
1054.836	9480.15	54.07
1055.412	9474.97	23.81
1055.989	9469.79	32.88
1056.566	9464.63	35.98
1057.143	9459.46	45.07
1057.719	9454.30	35.69
1058.296	9449.15	45.88
1058.873	9444.01	48.98
1059.449	9438.87	30.1
1060.026	9433.73	46.68
1060.603	9428.60	41.58
1061.180	9423.48	39.98
1061.756	9418.36	24.38
1062.333	9413.24	39.88
1062.910	9408.14	34.08
1063.486	9403.04	54.35
1064.063	9397.94	33.98
1064.640	9392.85	42.37
1065.216	9387.76	40.78
1065.793	9382.68	41.18
1066.370	9377.61	52.98
1066.947	9372.54	53.68
1067.523	9367.48	43.19
1068.100	9362.42	55.38
1068.677	9357.37	52.68
1069.253	9352.32	36.89
1069.830	9347.28	39.97
1070.407	9342.24	27.58
1070.984	9337.21	46.06
1071.560	9332.19	27.9
1072.137	9327.17	57.88
1072.714	9322.15	47.28
1073.290	9317.14	30
1073.867	9312.14	47.78
1074.444	9307.14	60.37
1075.021	9302.15	50.49
1075.597	9297.16	33.6
1076.174	9292.18	35.38
1076.751	9287.20	37.68
1077.327	9282.23	37.68
1077.904	9277.26	43.08
1078.481	9272.30	32.18
1079.057	9267.35	48.46
1079.634	9262.40	37.77
1080.211	9257.45	18.38
1080.788	9252.51	30.77
1081.364	9247.58	57.05
1081.941	9242.65	42.68
1082.518	9237.72	35.08
1083.094	9232.81	57.16
1083.671	9227.89	55.38
1084.248	9222.98	56.98
1084.825	9218.08	66.57
1085.401	9213.18	46.2
1085.978	9208.29	36.38
1086.555	9203.40	38.88
1087.131	9198.52	29.09
1087.708	9193.64	45.68
1088.285	9188.77	48.58
1088.862	9183.90	31.69
1089.438	9179.04	55.75
1090.015	9174.19	25.38
1090.592	9169.33	50.56
1091.168	9164.49	50.88
1091.745	9159.65	65.27
1092.322	9154.81	40.19
1092.898	9149.98	51.37
1093.475	9145.15	47.37
1094.052	9140.33	31.38
1094.629	9135.52	31.68
1095.205	9130.71	35.37
1095.782	9125.90	40.28
1096.359	9121.10	39.18
1096.935	9116.31	33.68
1097.512	9111.52	51.57
1098.089	9106.73	41.68
1098.666	9101.95	31.98
1099.242	9097.18	24.69
