Wavelength [nm]	Wavenumbers [1/cm]	2107362U1_0001	2107362U1_0035
175.355	57027.31	-0.04737	0.2063
175.931	56840.38	-0.0221	-0.3972
176.508	56654.66	-0.4264	-0.6763
177.085	56470.15	0.05609	3.38
177.661	56286.85	-0.0291	0.9133
178.238	56104.72	0.1043	0.4801
178.815	55923.78	0.07656	0.2021
179.392	55743.99	0.1529	-0.09959
179.968	55565.36	-0.1033	2.531
180.545	55387.87	-0.03764	1.468
181.122	55211.51	0.07598	-0.2218
181.698	55036.27	-0.007047	-0.09618
182.275	54862.14	-0.202	-0.215
182.852	54689.1	-0.1946	-0.2133
183.428	54517.16	0.08928	1.649
184.005	54346.29	0.1342	2.681
184.582	54176.49	0.1404	0.1865
185.159	54007.75	0.3671	0.2825
185.735	53840.05	0.3131	0.2429
186.312	53673.4	0.3148	0.2614
186.889	53507.77	0.2654	0.2271
187.465	53343.16	0.3328	0.2752
188.042	53179.56	0.3476	0.2564
188.619	53016.96	0.5287	0.4119
189.196	52855.36	0.3273	0.296
189.772	52694.73	0.2956	0.2356
190.349	52535.08	0.286	0.238
190.926	52376.39	0.3125	0.2668
191.502	52218.66	0.3051	0.2671
192.079	52061.88	0.3233	0.2752
192.656	51906.03	0.3062	0.2621
193.233	51751.12	0.3205	0.2728
193.809	51597.12	0.3445	0.3024
194.386	51444.04	0.352	0.3031
194.963	51291.87	0.3508	0.3016
195.539	51140.59	0.367	0.326
196.116	50990.21	0.3806	0.3401
196.693	50840.7	0.3937	0.3526
197.27	50692.07	0.4206	0.3705
197.846	50544.31	0.4133	0.3567
198.423	50397.4	0.4138	0.3716
199	50251.35	0.4099	0.382
199.576	50106.14	0.4673	0.4368
200.153	49961.76	0.5669	0.5376
200.73	49818.22	0.6217	0.5992
201.306	49675.5	0.674	0.6656
201.883	49533.59	0.8385	0.8125
202.46	49392.5	0.8164	0.795
203.037	49252.2	0.8766	0.8407
203.613	49112.7	0.9329	0.8842
204.19	48973.99	1.042	0.9822
204.767	48836.06	1.056	1.031
205.343	48698.9	1.076	1.039
205.92	48562.51	1.086	1.045
206.497	48426.89	1.108	1.099
207.074	48292.02	1.116	1.091
207.65	48157.89	1.152	1.11
208.227	48024.51	1.196	1.17
208.804	47891.87	1.237	1.214
209.38	47759.96	1.275	1.242
209.957	47628.77	1.3	1.272
210.534	47498.31	1.295	1.282
211.111	47368.55	1.282	1.279
211.687	47239.5	1.312	1.314
212.264	47111.16	1.281	1.298
212.841	46983.5	1.237	1.258
213.417	46856.54	1.263	1.267
213.994	46730.26	1.207	1.208
214.571	46604.67	1.164	1.163
215.147	46479.74	1.054	1.069
215.724	46355.48	0.9791	0.9959
216.301	46231.89	1.209	1.287
216.878	46108.95	1.283	1.372
217.454	45986.67	1.314	1.427
218.031	45865.03	1.253	1.355
218.608	45744.03	1.167	1.235
219.184	45623.67	1.088	1.122
219.761	45503.94	1.009	1.013
220.338	45384.84	0.938	0.9245
220.915	45266.36	0.884	0.8568
221.491	45148.5	0.8355	0.8018
222.068	45031.25	0.7931	0.7584
222.645	44914.61	0.7563	0.7255
223.221	44798.57	0.7229	0.6982
223.798	44683.12	0.6944	0.675
224.375	44568.28	0.6677	0.6552
224.952	44454.02	0.6435	0.639
225.528	44340.34	0.625	0.6278
226.105	44227.25	0.6079	0.6184
226.682	44114.73	0.5935	0.6118
227.258	44002.78	0.5798	0.608
227.835	43891.39	0.5684	0.6058
228.412	43780.57	0.5588	0.607
228.989	43670.31	0.5511	0.6104
229.565	43560.6	0.544	0.6136
230.142	43451.45	0.5391	0.6201
230.719	43342.83	0.5346	0.628
231.295	43234.76	0.5308	0.6371
231.872	43127.23	0.5287	0.6461
232.449	43020.23	0.5279	0.658
233.025	42913.76	0.5271	0.6687
233.602	42807.82	0.528	0.6811
234.179	42702.4	0.5293	0.6942
234.756	42597.49	0.532	0.7086
235.332	42493.1	0.536	0.7249
235.909	42389.22	0.5396	0.7403
236.486	42285.85	0.5434	0.7548
237.062	42182.98	0.5479	0.7699
237.639	42080.61	0.5532	0.7859
238.216	41978.73	0.5588	0.8022
238.793	41877.35	0.5641	0.8179
239.369	41776.46	0.571	0.8336
239.946	41676.05	0.5785	0.8513
240.523	41576.12	0.5868	0.8696
241.099	41476.67	0.5932	0.8847
241.676	41377.69	0.601	0.9013
242.253	41279.19	0.6104	0.9181
242.83	41181.15	0.6173	0.9307
243.406	41083.58	0.6246	0.9437
243.983	40986.47	0.6306	0.9559
244.56	40889.82	0.6356	0.9623
245.136	40793.62	0.6409	0.9711
245.713	40697.87	0.6479	0.9806
246.29	40602.58	0.6546	0.9912
246.866	40507.72	0.6586	0.9967
247.443	40413.31	0.6634	1.004
248.02	40319.34	0.6668	1.008
248.597	40225.81	0.6694	1.011
249.173	40132.71	0.6696	1.01
249.75	40040.03	0.6709	1.01
250.327	39947.79	0.6719	1.012
250.903	39855.97	0.6727	1.015
251.48	39764.57	0.6738	1.016
252.057	39673.58	0.6744	1.014
252.634	39583.02	0.6742	1.015
253.21	39492.86	0.6736	1.014
253.787	39403.12	0.6716	1.008
254.364	39313.78	0.6686	1.002
254.94	39224.85	0.6668	0.9966
255.517	39136.32	0.6618	0.9846
256.094	39048.19	0.6576	0.9726
256.671	38960.45	0.6547	0.9589
257.247	38873.11	0.652	0.9436
257.824	38786.15	0.6501	0.9262
258.401	38699.59	0.6497	0.9056
258.977	38613.41	0.6484	0.8824
259.554	38527.61	0.6485	0.8576
260.131	38442.2	0.6495	0.834
260.708	38357.16	0.6516	0.8103
261.284	38272.5	0.6528	0.785
261.861	38188.21	0.6496	0.752
262.438	38104.29	0.6431	0.715
263.014	38020.74	0.6358	0.6801
263.591	37937.55	0.6299	0.6498
264.168	37854.73	0.6237	0.6219
264.744	37772.27	0.615	0.5921
265.321	37690.17	0.6051	0.5642
265.898	37608.42	0.5963	0.5416
266.475	37527.03	0.5912	0.5282
267.051	37445.99	0.5904	0.5251
267.628	37365.29	0.5898	0.5229
268.205	37284.95	0.5834	0.5091
268.781	37204.95	0.5692	0.4817
269.358	37125.29	0.5512	0.4491
269.935	37045.97	0.5332	0.4185
270.512	36967	0.5158	0.3929
271.088	36888.35	0.4979	0.3718
271.665	36810.04	0.4812	0.3545
272.242	36732.07	0.4631	0.3398
272.818	36654.42	0.4428	0.3251
273.395	36577.1	0.4232	0.3129
273.972	36500.1	0.4035	0.3014
274.549	36423.43	0.3849	0.2912
275.125	36347.08	0.3668	0.2807
275.702	36271.05	0.3507	0.2728
276.279	36195.34	0.3372	0.2649
276.855	36119.94	0.3257	0.2588
277.432	36044.86	0.3156	0.2532
278.009	35970.09	0.3075	0.2491
278.586	35895.62	0.3013	0.2451
279.162	35821.47	0.2971	0.2424
279.739	35747.62	0.2941	0.2405
280.316	35674.07	0.2926	0.2396
280.892	35600.83	0.2916	0.2386
281.469	35527.89	0.291	0.2376
282.046	35455.24	0.2912	0.2369
282.622	35382.89	0.2913	0.236
283.199	35310.84	0.291	0.2351
283.776	35239.08	0.2905	0.2338
284.353	35167.61	0.2897	0.2325
284.929	35096.43	0.2888	0.2311
285.506	35025.53	0.2879	0.2304
286.083	34954.92	0.2868	0.2296
286.659	34884.6	0.2846	0.2281
287.236	34814.56	0.2819	0.2269
287.813	34744.8	0.2786	0.2251
288.39	34675.32	0.276	0.2242
288.966	34606.12	0.2735	0.2229
289.543	34537.19	0.2713	0.2219
290.12	34468.53	0.2688	0.2212
290.696	34400.15	0.2655	0.2189
291.273	34332.04	0.2615	0.2156
291.85	34264.2	0.2585	0.213
292.427	34196.62	0.2563	0.2108
293.003	34129.32	0.2535	0.208
293.58	34062.27	0.2517	0.2055
294.157	33995.49	0.2488	0.2024
294.733	33928.97	0.2458	0.1997
295.31	33862.71	0.2413	0.1964
295.887	33796.71	0.2355	0.1926
296.463	33730.97	0.2297	0.1886
297.04	33665.48	0.223	0.1843
297.617	33600.24	0.2158	0.18
298.194	33535.26	0.2087	0.176
298.77	33470.53	0.2012	0.1718
299.347	33406.04	0.1939	0.1674
299.924	33341.81	0.187	0.1634
300.5	33277.82	0.1807	0.1595
301.077	33214.08	0.1748	0.1555
301.654	33150.58	0.1701	0.1521
302.231	33087.32	0.1664	0.1492
302.807	33024.3	0.1623	0.1453
303.384	32961.53	0.1592	0.1423
303.961	32898.99	0.1569	0.139
304.537	32836.69	0.1547	0.1349
305.114	32774.62	0.1533	0.1313
305.691	32712.79	0.1512	0.1274
306.268	32651.19	0.1497	0.1243
306.844	32589.82	0.1477	0.1212
307.421	32528.69	0.1448	0.1185
307.998	32467.78	0.1409	0.1141
308.574	32407.1	0.1365	0.1106
309.151	32346.64	0.1318	0.1072
309.728	32286.41	0.1265	0.1035
310.305	32226.41	0.1207	0.09961
310.881	32166.63	0.115	0.09602
311.458	32107.07	0.1101	0.09226
312.035	32047.72	0.1056	0.08883
312.611	31988.6	0.1015	0.08575
313.188	31929.7	0.09799	0.08287
313.765	31871.01	0.09516	0.08021
314.341	31812.54	0.09318	0.07756
314.918	31754.28	0.0917	0.0754
315.495	31696.23	0.09037	0.07355
316.072	31638.4	0.0893	0.07121
316.648	31580.78	0.08877	0.06939
317.225	31523.37	0.08842	0.06789
317.802	31466.16	0.08812	0.06577
318.378	31409.16	0.08839	0.06425
318.955	31352.37	0.08886	0.06304
319.532	31295.78	0.08894	0.06176
320.109	31239.4	0.08968	0.06016
320.685	31183.22	0.09093	0.05952
321.262	31127.24	0.0911	0.05818
321.839	31071.47	0.09179	0.05713
322.415	31015.89	0.093	0.0566
322.992	30960.51	0.09384	0.05605
323.569	30905.33	0.09524	0.05604
324.146	30850.34	0.09558	0.05518
324.722	30795.55	0.09682	0.055
325.299	30740.95	0.09799	0.05466
325.876	30686.55	0.09923	0.05513
326.452	30632.34	0.1006	0.05502
327.029	30578.32	0.1024	0.05532
327.606	30524.49	0.1034	0.05541
328.182	30470.85	0.1048	0.05577
328.759	30417.4	0.1065	0.05617
329.336	30364.14	0.1086	0.05676
329.913	30311.06	0.1107	0.0577
330.489	30258.16	0.1127	0.05855
331.066	30205.45	0.1147	0.05935
331.643	30152.93	0.1172	0.06034
332.219	30100.59	0.1198	0.06152
332.796	30048.42	0.1222	0.06282
333.373	29996.44	0.1254	0.06421
333.95	29944.64	0.129	0.06601
334.526	29893.02	0.1324	0.06786
335.103	29841.57	0.136	0.06933
335.68	29790.3	0.1403	0.07179
336.256	29739.21	0.1447	0.07433
336.833	29688.29	0.1488	0.07611
337.41	29637.55	0.154	0.07832
337.987	29586.98	0.1589	0.08084
338.563	29536.58	0.1637	0.08393
339.14	29486.35	0.169	0.08634
339.717	29436.29	0.1748	0.08877
340.293	29386.41	0.1805	0.09181
340.87	29336.69	0.1865	0.09528
341.447	29287.14	0.1928	0.09809
342.024	29237.76	0.199	0.1013
342.6	29188.54	0.2057	0.1043
343.177	29139.49	0.2128	0.108
343.754	29090.6	0.2201	0.1117
344.33	29041.88	0.2273	0.1153
344.907	28993.32	0.2354	0.1193
345.484	28944.92	0.2435	0.1234
346.06	28896.68	0.2516	0.1275
346.637	28848.61	0.26	0.1312
347.214	28800.69	0.2686	0.1353
347.791	28752.93	0.277	0.1395
348.367	28705.33	0.286	0.1438
348.944	28657.89	0.2956	0.1483
349.521	28610.61	0.3049	0.1528
350.097	28563.48	0.3144	0.1571
350.674	28516.5	0.3243	0.1616
351.251	28469.68	0.3341	0.1665
351.828	28423.02	0.344	0.1713
352.404	28376.5	0.3534	0.1757
352.981	28330.14	0.3637	0.1803
353.558	28283.93	0.3754	0.1864
354.134	28237.87	0.3851	0.1908
354.711	28191.96	0.3957	0.1965
355.288	28146.19	0.407	0.2014
355.865	28100.58	0.4183	0.2068
356.441	28055.12	0.4288	0.2125
357.018	28009.8	0.4381	0.2166
357.595	27964.62	0.4482	0.2217
358.171	27919.6	0.458	0.2265
358.748	27874.71	0.4688	0.2318
359.325	27829.98	0.4837	0.2386
359.901	27785.38	0.494	0.244
360.478	27740.93	0.5057	0.2492
361.055	27696.62	0.5169	0.2544
361.632	27652.45	0.5288	0.2599
362.208	27608.42	0.5413	0.2654
362.785	27564.53	0.5535	0.2715
363.362	27520.78	0.5646	0.2764
363.938	27477.17	0.5755	0.2822
364.515	27433.7	0.5867	0.2878
365.092	27390.37	0.5982	0.2926
365.669	27347.17	0.6104	0.298
366.245	27304.11	0.6233	0.3042
366.822	27261.18	0.6349	0.3094
367.399	27218.39	0.6471	0.3148
367.975	27175.73	0.6611	0.3214
368.552	27133.2	0.673	0.3267
369.129	27090.81	0.6836	0.3313
369.706	27048.55	0.6952	0.3368
370.282	27006.43	0.706	0.3418
370.859	26964.43	0.7154	0.3469
371.436	26922.56	0.7286	0.3525
372.012	26880.83	0.738	0.3578
372.589	26839.22	0.7499	0.3628
373.166	26797.74	0.7602	0.368
373.743	26756.39	0.7713	0.373
374.319	26715.17	0.7778	0.3779
374.896	26674.07	0.7905	0.3822
375.473	26633.1	0.7965	0.3847
376.049	26592.26	0.8042	0.3893
376.626	26551.54	0.8174	0.3949
377.203	26510.94	0.8238	0.3994
377.779	26470.47	0.8313	0.4034
378.356	26430.12	0.8396	0.4076
378.933	26389.9	0.848	0.4113
379.51	26349.79	0.8578	0.4154
380.086	26309.81	0.8651	0.4193
380.663	26269.95	0.8727	0.4234
381.24	26230.22	0.8795	0.4273
381.816	26190.6	0.885	0.4309
382.393	26151.1	0.8916	0.4334
382.97	26111.72	0.8989	0.4369
383.547	26072.45	0.9058	0.4413
384.123	26033.31	0.9128	0.4451
384.7	25994.28	0.9191	0.4481
385.277	25955.37	0.9269	0.4509
385.853	25916.58	0.9317	0.4538
386.43	25877.9	0.9358	0.4569
387.007	25839.34	0.9437	0.4605
387.584	25800.89	0.9481	0.4633
388.16	25762.56	0.9539	0.4661
388.737	25724.34	0.963	0.4706
389.314	25686.23	0.9655	0.4727
389.89	25648.24	0.9717	0.4754
390.467	25610.35	0.9768	0.4786
391.044	25572.58	0.9861	0.4831
391.62	25534.93	0.9884	0.4852
392.197	25497.38	0.9898	0.4868
392.774	25459.94	0.9961	0.4895
393.351	25422.61	1	0.4924
393.927	25385.39	1	0.4951
394.504	25348.28	1.004	0.4966
395.081	25311.28	1.004	0.4996
395.657	25274.39	1.012	0.5027
396.234	25237.6	1.012	0.5045
396.811	25200.92	1.01	0.5052
397.388	25164.35	1.012	0.5084
397.964	25127.88	1.016	0.5113
398.541	25091.52	1.013	0.5121
399.118	25055.27	1.014	0.5143
399.694	25019.11	1.015	0.5166
400.271	24983.07	1.012	0.5168
400.848	24947.12	1.015	0.5191
401.425	24911.28	1.01	0.5199
402.001	24875.54	1.01	0.5209
402.578	24839.91	1.01	0.5231
403.155	24804.38	1.006	0.5239
403.731	24768.94	1.006	0.5253
404.308	24733.61	1.008	0.5266
404.885	24698.38	1.006	0.5281
405.462	24663.25	1.001	0.5289
406.038	24628.22	0.9968	0.5297
406.615	24593.29	0.9958	0.5306
407.192	24558.46	0.9939	0.5308
407.768	24523.73	0.9914	0.5316
408.345	24489.09	0.9899	0.5329
408.922	24454.56	0.988	0.5328
409.498	24420.12	0.9867	0.5331
410.075	24385.77	0.9838	0.5353
410.652	24351.53	0.98	0.5351
411.229	24317.37	0.9797	0.5361
411.805	24283.32	0.9764	0.5364
412.382	24249.36	0.9713	0.5352
412.959	24215.5	0.9713	0.5359
413.535	24181.72	0.97	0.5369
414.112	24148.05	0.9664	0.5372
414.689	24114.47	0.9624	0.5374
415.266	24080.98	0.9573	0.537
415.842	24047.58	0.9563	0.5376
416.419	24014.28	0.9516	0.5374
416.996	23981.06	0.9511	0.5376
417.572	23947.94	0.9389	0.5355
418.149	23914.91	0.9408	0.5367
418.726	23881.98	0.9313	0.5344
419.303	23849.13	0.9291	0.5353
419.879	23816.37	0.9256	0.5343
420.456	23783.7	0.9218	0.5326
421.033	23751.13	0.915	0.5325
421.609	23718.64	0.9107	0.5324
422.186	23686.24	0.9035	0.5299
422.763	23653.93	0.8983	0.5291
423.339	23621.7	0.8907	0.5272
423.916	23589.57	0.8855	0.5264
424.493	23557.52	0.8798	0.5256
425.07	23525.56	0.8726	0.5238
425.646	23493.68	0.8633	0.5208
426.223	23461.89	0.8551	0.5178
426.8	23430.19	0.8497	0.5168
427.376	23398.57	0.8436	0.5156
427.953	23367.04	0.8351	0.5129
428.53	23335.6	0.8266	0.5102
429.107	23304.23	0.8192	0.5081
429.683	23272.96	0.8116	0.506
430.26	23241.76	0.8041	0.5034
430.837	23210.65	0.7962	0.5017
431.413	23179.62	0.7854	0.4991
431.99	23148.68	0.7757	0.4954
432.567	23117.81	0.7688	0.4932
433.144	23087.03	0.758	0.4906
433.72	23056.34	0.7514	0.4877
434.297	23025.72	0.7411	0.4831
434.874	22995.18	0.7307	0.4806
435.45	22964.73	0.7224	0.4769
436.027	22934.35	0.7104	0.4742
436.604	22904.06	0.7064	0.4712
437.181	22873.85	0.6914	0.4651
437.757	22843.71	0.6815	0.4619
438.334	22813.66	0.6719	0.4588
438.911	22783.68	0.6626	0.4555
439.487	22753.78	0.648	0.4512
440.064	22723.96	0.6382	0.4459
440.641	22694.22	0.6301	0.443
441.217	22664.56	0.6188	0.4388
441.794	22634.97	0.6108	0.4364
442.371	22605.47	0.5965	0.4307
442.948	22576.03	0.5875	0.4281
443.524	22546.68	0.5762	0.4238
444.101	22517.4	0.5658	0.4195
444.678	22488.2	0.5547	0.416
445.254	22459.07	0.5429	0.4105
445.831	22430.02	0.5329	0.4058
446.408	22401.04	0.522	0.4004
446.985	22372.14	0.5105	0.3964
447.561	22343.31	0.4994	0.3928
448.138	22314.56	0.4885	0.3874
448.715	22285.88	0.4779	0.3836
449.291	22257.27	0.4678	0.3801
449.868	22228.74	0.4571	0.3747
450.445	22200.28	0.4462	0.3703
451.022	22171.89	0.4347	0.3654
451.598	22143.58	0.4238	0.3613
452.175	22115.33	0.4139	0.3573
452.752	22087.16	0.4031	0.3515
453.328	22059.07	0.3925	0.3469
453.905	22031.04	0.3826	0.3418
454.482	22003.08	0.3725	0.3373
455.058	21975.2	0.3625	0.3335
455.635	21947.38	0.3531	0.33
456.212	21919.64	0.3427	0.325
456.789	21891.96	0.3313	0.3187
457.365	21864.36	0.3231	0.3149
457.942	21836.82	0.3142	0.3111
458.519	21809.36	0.3047	0.3059
459.095	21781.96	0.2943	0.3011
459.672	21754.63	0.2866	0.296
460.249	21727.38	0.2784	0.2925
460.826	21700.18	0.2682	0.289
461.402	21673.06	0.2609	0.2846
461.979	21646.01	0.2496	0.2781
462.556	21619.02	0.2418	0.2733
463.132	21592.1	0.2321	0.2684
463.709	21565.24	0.2238	0.2659
464.286	21538.46	0.217	0.2603
464.863	21511.74	0.2079	0.2563
465.439	21485.08	0.2006	0.2508
466.016	21458.49	0.1934	0.2468
466.593	21431.97	0.1861	0.2419
467.169	21405.51	0.1785	0.2389
467.746	21379.12	0.1709	0.2335
468.323	21352.79	0.1661	0.2304
468.9	21326.53	0.1585	0.2259
469.476	21300.33	0.152	0.2221
470.053	21274.2	0.1455	0.2169
470.63	21248.13	0.1391	0.2121
471.206	21222.13	0.1326	0.2085
471.783	21196.18	0.1273	0.2047
472.36	21170.3	0.1209	0.1997
472.936	21144.49	0.1158	0.1962
473.513	21118.74	0.1107	0.1924
474.09	21093.05	0.105	0.1878
474.667	21067.42	0.09971	0.1843
475.243	21041.85	0.09462	0.1806
475.82	21016.35	0.09016	0.1775
476.397	20990.91	0.08623	0.1741
476.973	20965.53	0.08165	0.1691
477.55	20940.21	0.07682	0.165
478.127	20914.95	0.07241	0.1617
478.704	20889.75	0.06841	0.1577
479.28	20864.62	0.06474	0.1538
479.857	20839.54	0.06144	0.151
480.434	20814.53	0.0587	0.148
481.01	20789.57	0.05523	0.1444
481.587	20764.68	0.05207	0.1406
482.164	20739.84	0.04954	0.1375
482.741	20715.06	0.04693	0.1348
483.317	20690.34	0.04275	0.1309
483.894	20665.69	0.04112	0.1276
484.471	20641.08	0.03853	0.1243
485.047	20616.54	0.03386	0.1188
485.624	20592.06	0.03314	0.1173
486.201	20567.63	0.03312	0.1177
486.777	20543.27	0.0309	0.1142
487.354	20518.96	0.03057	0.1119
487.931	20494.7	0.02783	0.1087
488.508	20470.51	0.02593	0.1053
489.084	20446.37	0.02601	0.1038
489.661	20422.29	0.02263	0.1007
490.238	20398.27	0.02302	0.09939
490.814	20374.3	0.0214	0.09607
491.391	20350.39	0.02108	0.09445
491.968	20326.53	0.01991	0.09132
492.545	20302.73	0.01743	0.0883
493.121	20278.99	0.01728	0.08673
493.698	20255.3	0.01554	0.08372
494.275	20231.66	0.01462	0.08153
494.851	20208.09	0.01423	0.07929
495.428	20184.56	0.01244	0.07616
496.005	20161.09	0.01281	0.07549
496.582	20137.68	0.01267	0.07434
497.158	20114.32	0.012	0.07132
497.735	20091.01	0.01072	0.06974
498.312	20067.76	0.0105	0.06767
498.888	20044.56	0.01058	0.06607
499.465	20021.42	0.008768	0.06424
500.042	19998.33	0.009143	0.06314
500.619	19975.29	0.008923	0.06097
501.195	19952.31	0.008144	0.05935
501.772	19929.37	0.00779	0.05799
502.349	19906.49	0.007471	0.05631
502.925	19883.67	0.007137	0.0545
503.502	19860.89	0.00664	0.05316
504.079	19838.17	0.006158	0.05154
504.655	19815.5	0.00591	0.04957
505.232	19792.88	0.00569	0.04822
505.809	19770.31	0.005482	0.04693
506.386	19747.8	0.005431	0.04556
506.962	19725.33	0.005509	0.0449
507.539	19702.92	0.005477	0.04382
508.116	19680.56	0.00561	0.04235
508.692	19658.24	0.005325	0.04138
509.269	19635.98	0.004551	0.03995
509.846	19613.77	0.004636	0.03861
510.423	19591.61	0.004565	0.03781
510.999	19569.5	0.004132	0.03699
511.576	19547.44	0.003723	0.03531
512.153	19525.43	0.004665	0.03467
512.729	19503.47	0.00337	0.03297
513.306	19481.55	0.004043	0.03232
513.883	19459.69	0.004797	0.03173
514.46	19437.87	0.00429	0.03142
515.036	19416.11	0.003516	0.0299
515.613	19394.39	0.00313	0.02807
516.19	19372.72	0.003193	0.02734
516.766	19351.1	0.00327	0.02696
517.343	19329.53	0.003543	0.02712
517.92	19308.01	0.002955	0.02597
518.496	19286.53	0.002231	0.02562
519.073	19265.11	0.003064	0.02442
519.65	19243.72	0.001396	0.02187
520.227	19222.39	0.001521	0.02272
520.803	19201.11	0.00295	0.02334
521.38	19179.87	0.002177	0.02028
521.957	19158.68	0.001265	0.02013
522.533	19137.53	0.002954	0.01997
523.11	19116.43	0.00225	0.01987
523.687	19095.38	0.001622	0.01783
524.264	19074.37	0.002926	0.01921
524.84	19053.42	0.001712	0.01703
525.417	19032.5	0.00159	0.01739
525.994	19011.63	0.001099	0.01619
526.57	18990.81	0.001627	0.01587
527.147	18970.04	0.002214	0.01648
527.724	18949.3	0.002173	0.01532
528.301	18928.62	0.001237	0.01496
528.877	18907.98	0.001678	0.01321
529.454	18887.38	0.001353	0.01271
530.031	18866.83	0.001123	0.01304
530.607	18846.33	0.001833	0.0133
531.184	18825.86	0.001639	0.0124
531.761	18805.45	0.001948	0.01281
532.338	18785.07	0.0007542	0.01103
532.914	18764.75	0.0002484	0.01096
533.491	18744.46	0.001673	0.01086
534.068	18724.22	0.001401	0.01018
534.644	18704.02	0.001048	0.01058
535.221	18683.87	0.0008149	0.01012
535.798	18663.76	0.0008353	0.009763
536.374	18643.69	0.00117	0.009682
536.951	18623.67	0.001589	0.009252
537.528	18603.69	0.001525	0.009108
538.105	18583.75	0.001341	0.008738
538.681	18563.85	0.000786	0.008176
539.258	18544	0.0006172	0.007887
539.835	18524.19	0.001024	0.007494
540.411	18504.42	0.001333	0.007117
540.988	18484.69	0.0008372	0.006361
541.565	18465.01	0.000101	0.006161
542.142	18445.37	0.0001129	0.006533
542.718	18425.77	0.0002853	0.0062
543.295	18406.21	0.0003462	0.006006
543.872	18386.69	-0.0002301	0.005681
544.448	18367.21	-0.0001852	0.005748
545.025	18347.78	0.0005156	0.00602
545.602	18328.38	0.0003667	0.005746
546.179	18309.03	0.0001691	0.005228
546.755	18289.72	0.0002793	0.004704
547.332	18270.45	0.0005907	0.004684
547.909	18251.22	0.000669	0.004559
548.485	18232.03	0.0005167	0.005117
549.062	18212.88	0.0003396	0.004679
549.639	18193.77	0.0006233	0.004261
550.215	18174.7	0.0007331	0.00463
550.792	18155.67	0.0009118	0.004637
551.369	18136.68	0.00063	0.004376
551.946	18117.73	0.0009419	0.00431
552.522	18098.82	0.001077	0.004353
553.099	18079.94	0.0005662	0.003819
553.676	18061.11	0.0008762	0.00364
554.252	18042.32	-0.000179	0.003395
554.829	18023.57	-0.0002939	0.002606
555.406	18004.85	0.0004584	0.003042
555.983	17986.17	-0.0001698	0.002751
556.559	17967.54	0.001056	0.003668
557.136	17948.94	0.0008253	0.003656
557.713	17930.38	0.0002272	0.002237
558.289	17911.86	-0.0001732	0.002225
558.866	17893.37	-0.0005285	0.001598
559.443	17874.93	-0.0002113	0.00238
560.02	17856.52	-6.69E-05	0.001774
560.596	17838.15	-0.0007146	0.001545
561.173	17819.82	-3.14E-05	0.001988
561.75	17801.52	0.00023	0.001965
562.326	17783.27	0.0002116	0.002118
562.903	17765.05	0.0001747	0.002331
563.48	17746.86	6.58E-05	0.001863
564.057	17728.72	0.0004216	0.001834
564.633	17710.61	0.0005719	0.001861
565.21	17692.54	0.0002836	0.001702
565.787	17674.51	0.0002455	0.00147
566.363	17656.51	-0.0003372	0.001076
566.94	17638.55	-0.0004188	0.0006164
567.517	17620.62	0.0001039	0.001223
568.093	17602.74	-2.69E-05	0.001104
568.67	17584.89	0.0003735	0.001535
569.247	17567.07	0.0002264	0.001303
569.824	17549.29	-0.0001	0.001304
570.4	17531.55	5.07E-05	0.001134
570.977	17513.84	-0.0001407	0.001003
571.554	17496.17	-0.0002217	0.001179
572.13	17478.53	-0.000387	0.0008392
572.707	17460.93	-0.0001838	0.001088
573.284	17443.37	8.34E-05	0.001117
573.861	17425.84	0.0004551	0.001262
574.437	17408.34	0.0003376	0.001233
575.014	17390.88	-0.0003915	0.0002222
575.591	17373.46	-0.0007796	0.0001412
576.167	17356.07	-0.0002449	0.0004413
576.744	17338.71	0.0001365	0.0005118
577.321	17321.39	-0.0001614	0.000653
577.898	17304.11	-1.98E-05	0.0007431
578.474	17286.85	0.0002347	0.0009042
579.051	17269.64	1.86E-05	0.0005906
579.628	17252.45	-0.0005588	0.0002201
580.204	17235.31	-0.0005227	0.0005352
580.781	17218.19	4.12E-05	0.000511
581.358	17201.11	0.0001494	0.0003121
581.934	17184.06	-0.0001832	0.0002807
582.511	17167.05	-6.27E-05	0.0005058
583.088	17150.07	6.98E-05	0.0006857
583.665	17133.13	8.97E-05	0.0006424
584.241	17116.21	4.58E-05	0.000747
584.818	17099.34	-0.0001125	0.0006726
585.395	17082.49	-0.000316	0.0003833
585.971	17065.68	-0.0003454	0.000386
586.548	17048.9	-0.0001771	0.0003957
587.125	17032.15	5.06E-05	0.0002302
587.702	17015.44	-2.78E-05	0.0002346
588.278	16998.76	-0.0003135	0.0003364
588.855	16982.11	-8.31E-05	0.0001338
589.432	16965.49	-8.89E-05	-0.0002005
590.008	16948.91	-8.64E-05	6.30E-07
590.585	16932.36	-0.0001655	0.0001427
591.162	16915.84	-6.90E-05	8.15E-05
591.739	16899.36	5.61E-06	0.0001754
592.315	16882.9	-0.000116	0.0001161
592.892	16866.48	-0.0002138	3.74E-05
593.469	16850.09	0.000107	0.0001912
594.045	16833.73	0.0002004	0.0003984
594.622	16817.4	6.84E-05	0.0002808
595.199	16801.11	-0.0001323	-0.0001612
595.776	16784.85	-0.0003038	-4.86E-05
596.352	16768.61	0.0001491	0.0003644
596.929	16752.41	0.0002266	0.000236
597.506	16736.24	1.11E-05	-9.17E-05
598.082	16720.11	-0.0001263	-0.0001668
598.659	16704	-0.0002694	-0.0001398
599.236	16687.92	-2.73E-06	1.15E-05
599.812	16671.88	-0.000339	-3.31E-05
600.389	16655.86	-0.0004026	-0.0002875
600.966	16639.88	-6.60E-05	4.96E-05
601.543	16623.93	-9.44E-05	2.17E-05
602.119	16608	-0.0003049	-0.0004138
602.696	16592.11	-0.0002937	-6.74E-05
603.273	16576.25	-0.0002623	-4.46E-05
603.849	16560.42	-0.0001872	-0.0003941
604.426	16544.62	0.000514	0.0002914
605.003	16528.85	2.04E-05	-0.0003643
605.58	16513.11	-0.0002055	-0.0004269
606.156	16497.4	0.0001409	-1.25E-05
606.733	16481.71	-0.0004392	-0.0002655
607.31	16466.06	-0.0004213	-0.0001165
607.886	16450.44	-0.0005179	-0.000309
608.463	16434.85	-0.0001853	-0.0003013
609.04	16419.29	-0.000623	-0.0004308
609.617	16403.75	-0.0006313	-0.000502
610.193	16388.25	-0.0001331	-0.0002374
610.77	16372.78	-2.80E-05	-6.68E-05
611.347	16357.33	8.11E-05	-0.0002041
611.923	16341.92	0.0001939	3.72E-05
612.5	16326.53	-0.0005672	-0.0005944
613.077	16311.17	1.60E-05	-0.000175
613.653	16295.84	-0.0002051	-0.0001367
614.23	16280.54	0.000538	0.0005717
614.807	16265.27	0.0002085	-7.93E-05
615.384	16250.03	0.0002624	9.99E-05
615.96	16234.81	0.0002806	0.0001692
616.537	16219.63	7.07E-05	0.0002674
617.114	16204.47	0.0001522	0.000247
617.69	16189.34	-7.36E-05	0.0002216
618.267	16174.24	4.02E-05	-7.35E-05
618.844	16159.16	-0.0004564	-0.000316
619.421	16144.12	-0.0006752	-0.0008727
619.997	16129.1	-0.0006233	-0.000973
620.574	16114.11	-0.0003038	-0.0003503
621.151	16099.15	-0.000524	-0.0004494
621.727	16084.22	-0.0006214	-0.0002713
622.304	16069.31	-0.0008806	-0.0007322
622.881	16054.43	-0.0005093	-0.000464
623.458	16039.58	-0.0004841	-0.0001759
624.034	16024.76	-0.0003185	-0.0002624
624.611	16009.97	-0.00037	-0.0003292
625.188	15995.2	-0.0006047	-0.0002272
625.764	15980.46	-0.0004865	-0.000264
626.341	15965.74	-0.000312	-0.0005201
626.918	15951.05	-0.0002261	-0.0001111
627.495	15936.39	7.39E-05	-9.90E-05
628.071	15921.76	-0.000248	-0.0003054
628.648	15907.15	-0.0002142	-0.0002012
629.225	15892.58	5.09E-06	0.0002261
629.801	15878.02	0.0001351	-0.0002698
630.378	15863.5	-0.000194	-0.0006328
630.955	15849	-0.0003957	-0.0005236
631.531	15834.52	-0.0002578	-0.0003526
632.108	15820.08	-0.0001883	-0.0003825
632.685	15805.66	-0.0001631	-0.0002255
633.262	15791.26	-0.000154	-0.0004197
633.838	15776.89	-6.87E-05	-0.0002165
634.415	15762.55	-0.0005531	-0.0007517
634.992	15748.24	-0.0003887	-0.0006917
635.568	15733.95	-1.10E-05	-0.0003569
636.145	15719.68	-0.000281	-0.0005509
636.722	15705.44	-0.0001136	-9.12E-05
637.299	15691.23	6.82E-05	8.16E-05
637.875	15677.05	-5.43E-05	8.87E-05
638.452	15662.88	-0.0002963	-0.0002204
639.029	15648.75	-0.000461	-0.0004443
639.605	15634.64	-0.0002944	-0.0003795
640.182	15620.56	-0.0005458	-0.0003572
640.759	15606.5	-0.0004204	-0.0003056
641.336	15592.46	-0.0002518	-2.72E-06
641.912	15578.45	-0.0003183	-0.00017
642.489	15564.47	-0.000238	-0.0003723
643.066	15550.51	-0.0001953	-0.0003793
643.642	15536.58	-0.0004303	-0.0007647
644.219	15522.67	-0.0004607	-0.0003954
644.796	15508.79	-0.0005528	-1.91E-05
645.373	15494.93	-0.0006223	-0.0003726
645.949	15481.09	-0.0006394	-0.0001152
646.526	15467.28	-0.0004958	-0.0002208
647.103	15453.5	-0.0006048	-0.0002114
647.679	15439.74	-0.0003572	-0.0003495
648.256	15426	-0.0003136	-0.0004216
648.833	15412.29	0.0002909	0.000174
649.409	15398.61	0.0002931	0.0002203
649.986	15384.94	-0.000127	-0.000202
650.563	15371.3	-0.0002014	-0.0002725
651.14	15357.69	-4.91E-05	-8.62E-05
651.716	15344.1	-0.000307	-2.56E-05
652.293	15330.53	-0.0006789	-0.0004012
652.87	15316.99	-0.001007	-0.0006978
653.446	15303.47	-0.0005477	-0.0007192
654.023	15289.98	7.65E-05	-0.0004628
654.6	15276.51	-0.0001744	-0.0003432
655.177	15263.06	-9.74E-05	-0.0001481
655.753	15249.64	0.0001411	5.20E-05
656.33	15236.24	-2.60E-05	-9.23E-05
656.907	15222.86	-0.0004971	-0.0001512
657.483	15209.51	-0.0005568	-0.0001958
658.06	15196.18	-0.0002679	5.18E-06
658.637	15182.87	0.0001564	3.68E-05
659.214	15169.59	0.0004165	0.0001306
659.79	15156.33	0.0001496	0.0003341
660.367	15143.1	-0.0001225	-1.20E-05
660.944	15129.88	-0.0003011	-0.0003765
661.52	15116.69	-0.0001968	-0.0002095
662.097	15103.53	-0.0001306	-0.0002621
662.674	15090.38	-7.38E-05	-0.000455
663.25	15077.26	-8.77E-05	-0.0003545
663.827	15064.16	-5.55E-05	-0.0001584
664.404	15051.09	-4.70E-05	-0.0002553
664.981	15038.03	-0.0002356	-0.0003124
665.557	15025	1.22E-06	-5.69E-05
666.134	15011.99	-2.16E-05	-7.36E-05
666.711	14999.01	4.34E-05	0.0001269
667.287	14986.05	1.64E-05	-0.0001413
667.864	14973.1	-0.0002549	-0.0002644
668.441	14960.19	-0.0002547	-0.0001371
669.018	14947.29	-0.0003956	-0.0003765
669.594	14934.42	-0.0004898	-0.000564
670.171	14921.56	-0.0002961	-0.0003259
670.748	14908.74	-0.0004042	-0.0005622
671.324	14895.93	-0.0003152	-0.0003738
671.901	14883.14	-0.0002682	-0.0001295
672.478	14870.38	-0.0002603	-0.0001674
673.055	14857.64	-0.0001877	-0.000395
673.631	14844.92	-0.0001011	-0.0003183
674.208	14832.22	7.38E-05	-0.0001293
674.785	14819.54	0.0002442	6.71E-06
675.361	14806.89	0.0003813	4.43E-05
675.938	14794.25	1.07E-06	4.19E-06
676.515	14781.64	3.74E-06	5.17E-05
677.092	14769.05	-0.0001806	-0.0001742
677.668	14756.48	0.0002105	-0.0001319
678.245	14743.94	-6.54E-05	-0.0003591
678.822	14731.41	-2.73E-05	-0.0002903
679.398	14718.91	6.58E-05	2.61E-05
679.975	14706.42	-4.54E-06	-7.04E-07
680.552	14693.96	-0.0001426	-0.0001021
681.128	14681.52	0.0001004	-5.57E-05
681.705	14669.1	-0.0001206	-0.0002574
682.282	14656.7	-0.0004912	-0.000259
682.859	14644.32	-0.0006413	-0.000566
683.435	14631.96	-0.0004582	-0.0005302
684.012	14619.63	-0.0002163	-0.0002349
684.589	14607.31	-0.0001804	-0.0003759
685.165	14595.02	-0.0003274	-0.0004641
685.742	14582.74	-0.0004151	-0.0004513
686.319	14570.49	-0.0006064	-0.0003417
686.896	14558.25	-0.0006099	-0.0004567
687.472	14546.04	-0.0003164	-0.0003433
688.049	14533.85	-0.0004173	-8.37E-05
688.626	14521.68	-0.0007673	-0.0004221
689.202	14509.53	-0.0007321	-0.0003763
689.779	14497.39	-0.0007097	-0.0003886
690.356	14485.28	-0.0004717	-0.0003327
690.933	14473.19	-0.0003888	-0.00043
691.509	14461.12	-0.0003782	-0.0006725
692.086	14449.07	-0.0001752	-0.0004134
692.663	14437.04	-0.0001374	-0.0002802
693.239	14425.03	-8.04E-05	-0.0003026
693.816	14413.04	7.21E-05	-0.0001119
694.393	14401.07	0.0001999	-5.22E-05
694.969	14389.12	0.0002306	-7.26E-05
695.546	14377.19	-0.0001262	-0.0001094
696.123	14365.28	-0.0003154	-0.0002721
696.7	14353.39	-0.0003573	-0.0002198
697.276	14341.52	-0.0001546	-6.93E-05
697.853	14329.66	0.0001863	1.96E-05
698.43	14317.83	-0.0002941	-0.0003133
699.006	14306.02	-0.0004549	-0.0003535
699.583	14294.23	-0.0002619	-0.0002513
700.16	14282.45	-0.0003508	-0.0004369
700.737	14270.7	-0.0005714	-0.0005214
701.313	14258.96	-0.0004499	-0.0006201
701.89	14247.25	-0.0001239	-0.0005112
702.467	14235.55	1.93E-05	-0.0001648
703.043	14223.87	0.0001816	-8.75E-05
703.62	14212.21	0.0001784	-8.34E-05
704.197	14200.58	-0.0002204	-0.0002959
704.774	14188.95	-0.0003801	-0.0002313
705.35	14177.35	-0.0004	-0.0004155
705.927	14165.77	-0.0006169	-0.0004675
706.504	14154.21	-0.0003741	-0.0001433
707.08	14142.66	-0.0003212	-0.0002087
707.657	14131.14	-0.0002446	-0.0003454
708.234	14119.63	-0.0003362	-0.0003698
708.811	14108.14	-0.0004087	-0.0002016
709.387	14096.67	-0.0005236	-0.0004749
709.964	14085.22	-0.000276	-0.0005266
710.541	14073.79	-0.0001306	-0.0003298
711.117	14062.38	-0.0001515	-0.0001327
711.694	14050.98	5.08E-05	8.17E-06
712.271	14039.6	-0.0001947	-0.0001577
712.847	14028.25	-6.08E-05	-0.0004929
713.424	14016.91	1.01E-05	-0.0002743
714.001	14005.58	7.05E-05	-9.94E-05
714.578	13994.28	2.57E-05	-0.0002012
715.154	13983	0.0001331	3.46E-05
715.731	13971.73	-0.0001406	0.0002777
716.308	13960.48	-0.0001399	-6.69E-05
716.884	13949.25	-0.0004757	-0.0003926
717.461	13938.04	-0.0004023	-0.0002278
718.038	13926.84	-0.0003684	-0.0003214
718.615	13915.67	-0.000683	-0.0005048
719.191	13904.51	-0.0006636	-0.0006891
719.768	13893.37	-0.0004297	-0.0003947
720.345	13882.24	-0.000218	-0.0001224
720.921	13871.14	-0.0003035	-0.0004845
721.498	13860.05	-0.0005086	-0.0006886
722.075	13848.98	-0.0007527	-0.0004402
722.652	13837.93	-0.0007549	-0.0006739
723.228	13826.89	-0.0007304	-0.0005126
723.805	13815.88	-0.0007774	-0.0004531
724.382	13804.88	-0.0007432	-0.0004293
724.958	13793.9	-0.0006843	-0.0003461
725.535	13782.93	-0.0002386	-0.0001246
726.112	13771.98	3.67E-05	-9.97E-05
726.688	13761.05	-0.0004564	-0.0003877
727.265	13750.14	-0.0006874	-0.0004533
727.842	13739.25	-0.0003933	-0.0002429
728.419	13728.37	-0.0001764	-0.0002038
728.995	13717.51	-0.0004195	-0.0001993
729.572	13706.67	-0.0005011	-0.000111
730.149	13695.84	-0.0003725	-0.0003919
730.725	13685.03	-0.0005814	-0.0001966
731.302	13674.24	-0.000789	-0.0001846
731.879	13663.46	-0.0004149	-0.000302
732.456	13652.71	-0.0003006	-5.94E-05
733.032	13641.96	-7.18E-05	-6.58E-05
733.609	13631.24	-0.0003941	-8.32E-05
734.186	13620.53	1.30E-06	-5.51E-05
734.762	13609.84	-0.0004721	-0.0004357
735.339	13599.17	-0.00016	-0.0001346
735.916	13588.51	0.0001481	-4.54E-05
736.493	13577.87	0.0004604	0.0003026
737.069	13567.25	0.0005827	0.0004132
737.646	13556.64	0.0001476	-0.0001128
738.223	13546.05	9.01E-05	5.98E-05
738.799	13535.47	-0.0004991	-0.0008223
739.376	13524.92	-0.000788	-0.0006359
739.953	13514.38	-0.0001185	-0.0001038
740.53	13503.85	0.0001643	6.49E-05
741.106	13493.34	-5.18E-05	9.65E-05
741.683	13482.85	-2.78E-05	-0.0002297
742.26	13472.37	-4.13E-06	-0.0001723
742.836	13461.92	9.56E-05	-0.0001345
743.413	13451.47	-0.0003094	-0.0003818
743.99	13441.05	-0.0005423	-0.0007895
744.566	13430.63	-0.000333	-0.0005476
745.143	13420.24	-0.0003718	-0.0003574
745.72	13409.86	-0.0005567	-0.0004867
746.297	13399.5	-0.0004138	-0.0006928
746.873	13389.15	-0.0002459	5.53E-06
747.45	13378.82	-0.0004083	-0.000127
748.027	13368.51	-0.0002366	-0.0002849
748.603	13358.21	0.0001393	0.0003112
749.18	13347.92	-2.95E-05	-0.0001303
749.757	13337.66	-0.0001495	-0.0001549
750.334	13327.41	-0.0004088	-0.0004482
750.91	13317.17	-0.0002295	-0.0002836
751.487	13306.95	-0.0001019	-0.0002826
752.064	13296.75	-0.0008198	-0.0006272
752.64	13286.56	-0.0005892	-0.0006723
753.217	13276.38	-0.0005979	-0.0004801
753.794	13266.23	-0.0005824	-0.0006498
754.371	13256.09	-0.0004755	-0.0005098
754.947	13245.96	-0.0004332	-0.0002565
755.524	13235.85	-0.0005676	-0.0005963
756.101	13225.75	-8.97E-05	-6.05E-05
756.677	13215.67	0.0001083	0.0001462
757.254	13205.61	-0.0001605	2.97E-05
757.831	13195.56	-0.0005143	-0.0003062
758.407	13185.52	-0.0002975	4.10E-05
758.984	13175.5	-0.0001053	3.65E-05
759.561	13165.5	-0.0001157	-0.0001486
760.138	13155.51	0.000238	-1.19E-05
760.714	13145.54	0.0002993	-0.0001215
761.291	13135.58	0.0002311	-5.75E-05
761.868	13125.64	0.0003514	0.0001435
762.444	13115.71	0.0001589	1.15E-05
763.021	13105.8	4.18E-05	-8.37E-05
763.598	13095.9	-3.67E-05	-9.82E-05
764.175	13086.01	-0.0001559	-0.0001714
764.751	13076.15	-0.0002164	-0.0002171
765.328	13066.29	-6.66E-05	0.0001494
765.905	13056.45	0.00032	0.0002759
766.481	13046.63	0.0002047	0.0002232
767.058	13036.82	0.0002133	0.0001236
767.635	13027.03	0.000542	0.0002146
768.212	13017.25	0.0005261	0.0005509
768.788	13007.48	7.02E-05	0.0001418
769.365	12997.73	-0.0001523	-8.81E-05
769.942	12988	-4.49E-05	-0.0001657
770.518	12978.28	-0.0001855	-0.0003863
771.095	12968.57	-0.0006613	-0.0003801
771.672	12958.88	-0.0006523	-0.0002596
772.249	12949.2	-0.0004814	-0.0001601
772.825	12939.54	-0.0003359	-0.0001499
773.402	12929.89	0.0001038	-8.96E-05
773.979	12920.25	0.000255	-2.16E-05
774.555	12910.63	0.0001559	0.0001762
775.132	12901.03	0.0001164	0.0003176
775.709	12891.44	-9.96E-05	7.72E-05
776.285	12881.86	-0.0002422	-9.39E-05
776.862	12872.3	-0.0001089	1.17E-05
777.439	12862.75	-0.0001145	-1.53E-05
778.016	12853.21	-0.0002944	3.33E-06
778.592	12843.69	-0.0002516	-0.0001968
779.169	12834.19	-0.0003508	-0.0003811
779.746	12824.69	-0.0001067	-3.10E-05
780.322	12815.22	-0.0002033	-0.00011
780.899	12805.75	-0.0001055	-2.82E-05
781.476	12796.3	-7.84E-05	-8.89E-05
782.053	12786.86	-0.0005391	-0.0003455
782.629	12777.44	-0.000336	-0.0001421
783.206	12768.03	-0.0001588	-0.0001487
783.783	12758.64	-0.0002999	-0.0001336
784.359	12749.26	-0.0006076	-0.0007492
784.936	12739.89	-0.000198	6.73E-05
785.513	12730.54	0.0003026	0.0003003
786.09	12721.2	0.0003296	0.000137
786.666	12711.87	-2.15E-05	0.0001377
787.243	12702.56	-0.0004082	-0.0006435
787.82	12693.26	-0.0005682	-0.0001089
788.396	12683.98	-0.0001642	-2.74E-05
788.973	12674.7	-0.0002026	-0.0003067
789.55	12665.45	4.34E-05	-0.0002899
790.126	12656.2	-0.000405	0.0002606
790.703	12646.97	-0.0006741	-0.000345
791.28	12637.75	-0.0006025	-0.0003595
791.857	12628.55	-0.0003299	-0.0001703
792.433	12619.36	-0.0005398	-0.0004485
793.01	12610.18	4.79E-05	-0.0001318
793.587	12601.02	-0.0005165	-0.0004752
794.163	12591.87	-6.71E-05	-1.47E-05
794.74	12582.73	-0.000311	3.69E-05
795.317	12573.6	-0.000327	-0.0002367
795.894	12564.49	-5.68E-05	-1.36E-05
796.47	12555.4	-0.0004577	-0.0005836
797.047	12546.31	-0.000224	6.31E-05
797.624	12537.24	0.0001828	4.49E-05
798.2	12528.18	-0.0003168	-7.50E-05
798.777	12519.14	0.0003203	0.000244
799.354	12510.1	0.0001456	8.16E-06
799.931	12501.09	-2.27E-07	-0.0002454
800.507	12492.08	-8.13E-06	-0.0001104
801.084	12483.09	-0.0002091	-0.0002387
801.661	12474.11	2.51E-06	-2.73E-05
802.237	12465.14	-6.75E-05	-0.0002746
802.814	12456.18	1.44E-05	-0.0001706
803.391	12447.24	-0.0002194	-0.0001757
803.968	12438.31	2.54E-05	-0.0001224
804.544	12429.4	0.0003433	0.0001923
805.121	12420.49	-6.77E-05	0.0001083
805.698	12411.6	-0.0002613	3.87E-05
806.274	12402.73	-0.0008411	-0.000533
806.851	12393.86	-0.0006783	-0.0003878
807.428	12385.01	-0.0002884	-0.0002193
808.004	12376.17	-0.0001487	0.0001668
808.581	12367.34	7.80E-05	0.0002146
809.158	12358.53	8.43E-05	0.0001311
809.735	12349.73	-0.0001106	5.67E-05
810.311	12340.94	-0.0003025	-7.80E-06
810.888	12332.16	-0.0003461	-0.000144
811.465	12323.39	-0.0001307	8.88E-05
812.041	12314.64	0.0001183	0.0002619
812.618	12305.9	0.0002212	0.0003033
813.195	12297.18	0.0001812	0.000211
813.772	12288.46	8.26E-05	0.0002732
814.348	12279.76	-0.0001168	0.0001512
814.925	12271.07	-9.57E-05	-8.75E-05
815.502	12262.39	0.0003894	5.75E-05
816.078	12253.72	0.0003765	4.35E-05
816.655	12245.07	-1.65E-05	-0.0002087
817.232	12236.43	-0.0002548	-0.0003134
817.809	12227.8	-0.0002493	-0.0003761
818.385	12219.18	-0.0001122	-0.0002571
818.962	12210.58	-3.74E-05	-0.0002651
819.539	12201.99	-8.18E-05	-0.0002972
820.115	12193.41	-0.000163	-0.0001912
820.692	12184.84	-0.0002586	-0.000285
821.269	12176.28	-0.0004052	-0.000444
821.845	12167.74	-0.000344	-0.0001861
822.422	12159.2	-0.0001924	-0.0001111
822.999	12150.68	-0.0004356	-0.0003493
823.576	12142.18	-0.0005292	-0.0005203
824.152	12133.68	-0.000491	-0.0001699
824.729	12125.19	-0.0004469	-0.000191
825.306	12116.72	0.0001715	0.0003137
825.882	12108.26	0.0004368	0.0003707
826.459	12099.81	0.0005507	0.0005537
827.036	12091.37	0.0007893	0.0005554
827.613	12082.95	0.0002409	0.0004135
828.189	12074.53	0.0006627	0.0002163
828.766	12066.13	-9.69E-05	0.000151
829.343	12057.74	0.0006388	0.0005651
829.919	12049.36	0.0002944	-1.52E-05
830.496	12041	0.0001483	0.0003569
831.073	12032.64	-0.0006445	-0.0007185
831.65	12024.3	-0.0006954	-0.0004864
832.226	12015.96	-0.0005342	-0.0003496
832.803	12007.64	-0.0005628	-0.0002436
833.38	11999.33	0.0003933	0.0003631
833.956	11991.03	0.000508	0.0005596
834.533	11982.75	0.0002037	6.54E-05
835.11	11974.47	5.70E-05	0.0001385
835.687	11966.21	-0.0004426	-0.0003114
836.263	11957.96	-0.0002958	-0.0003047
836.84	11949.72	5.01E-06	-0.0002688
837.417	11941.49	-8.79E-05	-9.07E-05
837.993	11933.27	-2.06E-05	0.0003539
838.57	11925.06	0.0002393	0.0004894
839.147	11916.87	0.0002116	0.0001835
839.723	11908.68	0.0004137	0.0001677
840.3	11900.51	0.0003563	1.15E-05
840.877	11892.35	0.000161	-9.45E-05
841.454	11884.2	-2.03E-05	0.0002275
842.03	11876.06	-3.55E-06	7.88E-05
842.607	11867.93	0.0002517	-0.0001723
843.184	11859.81	0.0002245	-8.07E-06
843.76	11851.71	3.64E-05	0.0001452
844.337	11843.61	0.0003099	0.0003888
844.914	11835.53	0.0006674	0.000611
845.491	11827.45	0.0009023	0.0006392
846.067	11819.39	0.0006062	0.0004563
846.644	11811.34	0.0002768	0.0002418
847.221	11803.3	0.0003896	7.30E-05
847.797	11795.27	0.0001803	-9.62E-05
848.374	11787.25	2.97E-05	-0.0002397
848.951	11779.25	0.0003549	0.0001152
849.528	11771.25	0.0006339	0.0001187
850.104	11763.26	0.0004996	0.0002554
850.681	11755.29	0.0007901	0.0007086
851.258	11747.32	0.0003856	0.0004009
851.834	11739.37	0.0003375	0.0003052
852.411	11731.43	0.000431	0.0001692
852.988	11723.5	8.15E-07	-0.0002303
853.564	11715.58	-0.0001478	-4.27E-05
854.141	11707.67	0.0003703	0.0002678
854.718	11699.77	0.0003814	0.0002277
855.295	11691.88	0.0009015	0.0004599
855.871	11684	0.001154	0.0006951
856.448	11676.13	3.66E-05	3.17E-05
857.025	11668.27	0.0004182	0.0005642
857.601	11660.43	0.0004126	0.0002851
858.178	11652.59	-0.000217	-3.49E-06
858.755	11644.77	-4.42E-05	4.22E-05
859.332	11636.95	0.0002406	0.000311
859.908	11629.15	7.10E-05	0.0001488
860.485	11621.35	-0.0003747	-2.68E-05
861.062	11613.57	-0.0001577	0.0001251
861.638	11605.8	0.0002111	8.15E-06
862.215	11598.03	0.0002745	-0.0001967
862.792	11590.28	0.0002626	0.0001114
863.369	11582.54	0.0003426	8.80E-05
863.945	11574.81	0.0002883	0.0001059
864.522	11567.09	0.0005315	-9.05E-06
865.099	11559.37	-9.95E-05	-0.0003585
865.675	11551.67	-0.0002887	-0.0005083
866.252	11543.98	4.96E-06	-0.0001416
866.829	11536.3	-0.0001846	-0.0003441
867.406	11528.63	0.0001867	3.91E-05
867.982	11520.97	0.000393	0.0004509
868.559	11513.32	0.0005726	0.0003241
869.136	11505.68	0.0003694	0.0003254
869.712	11498.05	0.0001194	0.0001512
870.289	11490.44	9.57E-05	6.28E-06
870.866	11482.83	6.88E-05	0.0001055
871.442	11475.23	-0.000238	-0.000308
872.019	11467.64	-0.0003518	-0.0004556
872.596	11460.06	-0.0002407	-0.0004502
873.173	11452.49	-0.0003614	-0.0002844
873.749	11444.93	-0.0004183	-0.0001025
874.326	11437.38	0.0004607	0.0001404
874.903	11429.84	-0.000131	-0.0002301
875.479	11422.31	-0.0003269	-0.0001905
876.056	11414.79	-0.000477	-0.0005233
876.633	11407.28	-3.30E-05	0.0002548
877.21	11399.78	0.0001709	-0.0002301
877.786	11392.29	0.0001618	9.41E-05
878.363	11384.81	-2.22E-05	2.27E-05
878.94	11377.34	-0.0003967	-0.000153
879.516	11369.88	0.0001562	0.000321
880.093	11362.43	0.0002553	0.0002753
880.67	11354.99	-0.0005636	6.46E-05
881.247	11347.56	3.10E-05	0.0003599
881.823	11340.14	0.0001867	0.0004763
882.4	11332.73	4.86E-05	0.0002171
882.977	11325.33	0.0006663	0.0005735
883.553	11317.94	0.0002193	0.0001274
884.13	11310.55	-0.0001991	-0.0003406
884.707	11303.18	0.000113	-0.0002643
885.283	11295.82	-0.0002757	-0.0002613
885.86	11288.46	0.0003998	0.0002518
886.437	11281.12	-0.0002462	-0.0001148
887.014	11273.78	-2.14E-05	-0.0004235
887.59	11266.46	0.0003357	6.80E-05
888.167	11259.14	0.0003526	0.0003773
888.744	11251.84	-0.0001265	-8.23E-05
889.32	11244.54	-0.0004458	-0.0005772
889.897	11237.25	-0.0003955	-0.0001849
890.474	11229.98	-0.0007478	-0.0003073
891.051	11222.71	-0.0007454	-0.0002914
891.627	11215.45	-0.0005873	-0.0003458
892.204	11208.2	-0.0005596	-0.0004349
892.781	11200.96	-0.0001585	0.0002614
893.357	11193.73	7.06E-05	9.80E-05
893.934	11186.51	0.0001869	0.0002292
894.511	11179.29	0.000515	0.0005223
895.088	11172.09	0.0007052	0.0004601
895.664	11164.9	0.0004292	0.0008812
896.241	11157.71	0.000527	0.0005908
896.818	11150.54	-0.0001136	-4.49E-05
897.394	11143.37	-3.14E-05	-0.0001477
897.971	11136.22	0.0004545	0.0002539
898.548	11129.07	0.0001929	-9.50E-06
899.125	11121.93	0.0001992	-0.0002225
899.701	11114.8	-0.0003285	-0.0004114
900.278	11107.68	-0.0001306	-0.0001883
900.855	11100.57	-0.000759	-0.0005944
901.431	11093.47	-8.73E-05	-0.0004259
902.008	11086.38	-0.0007397	-0.0003531
902.585	11079.29	-0.0002627	1.06E-05
903.161	11072.22	0.0005186	0.0004627
903.738	11065.15	0.000271	0.0004181
904.315	11058.09	0.0007167	0.0006185
904.892	11051.05	0.0005137	0.0007048
905.468	11044.01	0.000618	0.0005512
906.045	11036.98	0.0006082	0.0005131
906.622	11029.96	0.0003102	0.0002861
907.198	11022.95	0.0005552	0.0005663
907.775	11015.94	3.95E-05	8.84E-05
908.352	11008.95	-0.0003346	-0.0004722
908.929	11001.96	-4.58E-05	-0.0005341
909.505	10994.99	0.0001081	-0.0002648
910.082	10988.02	3.82E-05	2.74E-05
910.659	10981.06	0.0003325	0.0002461
911.235	10974.11	0.0002972	0.0002742
911.812	10967.17	0.0005875	0.0003309
912.389	10960.24	0.0005501	0.0003746
912.966	10953.32	0.0005637	0.0003927
913.542	10946.4	0.000917	0.0005838
914.119	10939.5	0.0009016	0.0004969
914.696	10932.6	0.0006196	0.0007189
915.272	10925.71	0.0005561	0.0004735
915.849	10918.83	0.0009473	0.0001494
916.426	10911.96	0.0004109	0.0002438
917.002	10905.1	0.0008197	0.0008336
917.579	10898.24	0.000971	0.0004611
918.156	10891.4	0.0009578	0.001088
918.733	10884.56	0.0008656	0.0005778
919.309	10877.73	0.0003467	0.000547
919.886	10870.91	0.001014	0.0007209
920.463	10864.1	0.0006716	0.0008587
921.039	10857.3	0.0008194	0.0008509
921.616	10850.5	0.000443	0.0004997
922.193	10843.72	0.0006642	0.0004563
922.77	10836.94	0.0006807	0.0005804
923.346	10830.17	0.0002919	0.0002147
923.923	10823.41	0.0005671	0.0001417
924.5	10816.66	0.0006732	0.0003552
925.076	10809.92	-3.25E-05	-0.0002159
925.653	10803.18	-7.76E-05	-0.0002628
926.23	10796.46	-7.03E-05	-0.0001194
926.807	10789.74	0.0002633	6.06E-05
927.383	10783.03	7.73E-05	0.0003182
927.96	10776.33	-0.0002399	-0.0003001
928.537	10769.63	-0.000305	-0.0005387
929.113	10762.95	-0.0006003	-0.0005954
929.69	10756.27	-0.0009209	-0.0009293
930.267	10749.6	-0.0009402	-0.001124
930.844	10742.94	-0.0006027	-0.000437
931.42	10736.29	-1.21E-05	-0.0003417
931.997	10729.65	-0.000106	-0.000389
932.574	10723.01	0.0005461	0.000528
933.15	10716.39	0.0007382	0.001003
933.727	10709.77	0.0005154	0.0004408
934.304	10703.16	0.0005343	0.0002059
934.88	10696.55	-0.000128	6.68E-05
935.457	10689.96	-0.0004464	-0.0002303
936.034	10683.37	0.0001212	-8.48E-05
936.611	10676.8	-0.0004051	-8.19E-05
937.187	10670.23	-0.0003929	-0.0001741
937.764	10663.66	0.0005014	-3.54E-05
938.341	10657.11	-0.0002027	-0.0003098
938.917	10650.56	0.0001648	9.60E-06
939.494	10644.03	0.001007	0.0003041
940.071	10637.5	0.0007423	0.0003593
940.648	10630.97	0.0007922	0.0005911
941.224	10624.46	0.000832	0.0007248
941.801	10617.95	0.0008181	0.0004021
942.378	10611.46	0.001542	0.00108
942.954	10604.97	0.001066	0.0009123
943.531	10598.48	0.0009183	0.0005386
944.108	10592.01	0.0009193	0.0005721
944.685	10585.54	0.0008735	0.0004613
945.261	10579.09	0.000244	6.29E-05
945.838	10572.64	0.0005796	0.0005927
946.415	10566.19	0.0007372	0.0006079
946.991	10559.76	0.000541	0.0003569
947.568	10553.33	0.001116	0.0008936
948.145	10546.91	0.001126	0.001101
948.721	10540.5	0.001428	0.001178
949.298	10534.1	0.0008307	0.0008301
949.875	10527.7	0.001177	0.001173
950.452	10521.31	-3.47E-05	-0.0003669
951.028	10514.93	-0.0004751	-0.0004763
951.605	10508.56	-0.000172	0.0006072
952.182	10502.2	0.0002764	0.0002216
952.758	10495.84	-0.0008335	0.0004829
953.335	10489.49	2.30E-05	-0.0007633
953.912	10483.15	0.0002889	0.0002195
954.489	10476.81	0.001125	0.0006251
955.065	10470.49	0.0007139	0.00022
955.642	10464.17	0.001161	0.0006698
956.219	10457.86	0.000419	0.0001608
956.795	10451.55	8.98E-05	0.0002196
957.372	10445.26	0.0001404	0.0002616
957.949	10438.97	0.000236	0.0005769
958.526	10432.69	0.0006392	0.0006784
959.102	10426.42	0.000586	0.0008546
959.679	10420.15	0.000329	0.0006933
960.256	10413.89	5.21E-05	0.000416
960.832	10407.64	-8.10E-05	0.0002049
961.409	10401.4	0.0002193	1.21E-05
961.986	10395.16	0.0008016	0.0004108
962.563	10388.94	0.0008734	0.0003159
963.139	10382.71	0.001173	0.0008068
963.716	10376.5	0.0007749	0.001233
964.293	10370.3	0.000585	0.001145
964.869	10364.1	0.0009623	0.001051
965.446	10357.91	0.0009962	0.0011
966.023	10351.72	0.0006238	0.0003488
966.599	10345.55	0.001346	0.00113
967.176	10339.38	0.0006386	0.0004081
967.753	10333.22	0.0005108	0.0001787
968.33	10327.06	0.0006827	0.0004496
968.906	10320.92	0.001226	0.001229
969.483	10314.78	0.001255	0.001185
970.06	10308.64	0.001218	0.0008888
970.636	10302.52	0.0009536	0.0001918
971.213	10296.4	0.0003709	0.0001985
971.79	10290.29	0.0004678	0.0008923
972.367	10284.19	0.0004967	0.0004366
972.943	10278.09	0.0004646	0.0004805
973.52	10272	0.00015	0.0006186
974.097	10265.92	7.39E-05	0.0007179
974.673	10259.85	0.000628	0.0005499
975.25	10253.78	0.0008389	0.0002334
975.827	10247.72	0.0005116	0.0003401
976.404	10241.67	7.21E-05	-7.46E-06
976.98	10235.62	0.0008226	0.0005387
977.557	10229.58	0.001282	0.0008012
978.134	10223.55	0.001084	0.0008044
978.71	10217.53	0.001132	0.00131
979.287	10211.51	0.0005213	-0.0001247
979.864	10205.5	0.0006001	0.0005005
980.44	10199.5	0.00124	0.001367
981.017	10193.5	0.0005653	0.001519
981.594	10187.51	-0.0001869	0.0006625
982.171	10181.53	-6.96E-05	0.0003411
982.747	10175.56	0.001335	0.0009291
983.324	10169.59	0.0009592	0.001333
983.901	10163.63	0.001253	0.0009766
984.477	10157.67	0.0006159	0.000455
985.054	10151.73	0.000466	0.0004971
985.631	10145.79	-0.0001496	-0.0001962
986.208	10139.85	-0.0006888	-0.0002547
986.784	10133.93	-3.67E-05	-0.0001989
987.361	10128.01	0.0005292	0.0002306
987.938	10122.1	0.0005667	0.0005479
988.514	10116.19	0.0009205	0.0008626
989.091	10110.29	0.0006965	0.0003729
989.668	10104.4	0.0001488	-0.0007033
990.245	10098.52	0.0009139	0.0002666
990.821	10092.64	0.00123	0.0005695
991.398	10086.77	0.001228	0.001559
991.975	10080.9	0.0004494	0.001446
992.551	10075.05	0.00105	0.000535
993.128	10069.19	0.000969	0.0002763
993.705	10063.35	0.0001571	0.0007208
994.282	10057.51	0.0006725	0.000441
994.858	10051.68	0.0006264	0.0009209
995.435	10045.86	6.03E-05	0.0006414
996.012	10040.04	0.0003314	0.0006271
996.588	10034.23	0.001203	0.0008088
997.165	10028.43	0.0003943	0.0004068
997.742	10022.63	-7.10E-05	0.0003227
998.318	10016.84	-0.0007407	-0.0003477
998.895	10011.06	5.12E-05	0.0001513
999.472	10005.28	0.0003841	5.24E-05
1000.049	9999.51	-7.91E-05	-9.96E-05
1000.625	9993.75	-0.0003198	0.0002531
1001.202	9987.99	0.0005157	0.0005078
1001.779	9982.24	0.00137	0.0005059
1002.355	9976.5	0.0006788	-0.0001577
1002.932	9970.76	0.0006098	0.0003797
1003.509	9965.03	0.0004861	0.0001015
1004.086	9959.31	0.0004599	4.06E-05
1004.662	9953.59	0.001112	0.0006486
1005.239	9947.88	0.001173	0.001211
1005.816	9942.18	0.001937	0.001778
1006.392	9936.48	0.0001675	0.0006951
1006.969	9930.79	0.000411	0.001012
1007.546	9925.11	0.0007582	0.001032
1008.123	9919.43	0.00168	0.001328
1008.699	9913.76	0.001478	0.0008971
1009.276	9908.09	0.001523	0.00119
1009.853	9902.43	0.0006835	0.0003256
1010.429	9896.78	0.001275	0.0009382
1011.006	9891.14	0.0006326	0.0009794
1011.583	9885.5	0.0007968	0.0005214
1012.16	9879.87	0.00148	0.001006
1012.736	9874.24	0.001323	0.0005607
1013.313	9868.62	0.000755	0.0004322
1013.89	9863.01	0.001244	0.001115
1014.466	9857.4	0.0009215	0.0009835
1015.043	9851.8	0.001055	0.001406
1015.62	9846.2	0.001612	0.001411
1016.196	9840.62	0.0007228	0.0004596
1016.773	9835.04	0.001215	0.001058
1017.35	9829.46	0.000476	0.001006
1017.927	9823.89	0.0003479	0.0005007
1018.503	9818.33	-0.0003608	-0.0003334
1019.08	9812.77	0.001082	-0.0002305
1019.657	9807.22	0.0003162	0.0006135
1020.233	9801.68	-0.0001625	0.0007547
1020.81	9796.14	0.0008062	0.0003284
1021.387	9790.61	0.0001901	-0.0001243
1021.964	9785.08	0.0003097	0.001096
1022.54	9779.57	0.0003131	9.14E-05
1023.117	9774.05	0.0008569	0.0002884
1023.694	9768.55	0.000761	0.001004
1024.27	9763.05	0.0004852	0.00105
1024.847	9757.55	0.0007135	0.001295
1025.424	9752.07	0.0002466	0.0004528
1026.001	9746.58	0.0005547	0.0005278
1026.577	9741.11	0.0007864	0.0004424
1027.154	9735.64	0.0009892	0.001304
1027.731	9730.18	0.0009298	0.0007448
1028.307	9724.72	0.0002892	-0.0001215
1028.884	9719.27	0.0009971	0.0008223
1029.461	9713.82	0.001314	0.0004506
1030.037	9708.38	-8.47E-05	-4.20E-05
1030.614	9702.95	-0.000265	-0.0007031
1031.191	9697.53	3.04E-06	8.90E-05
1031.768	9692.1	0.0002886	0.000543
1032.344	9686.69	0.0005342	0.0004541
1032.921	9681.28	0.0001786	0.0003148
1033.498	9675.88	-0.0001789	0.0003132
1034.074	9670.48	0.0003458	0.0005444
1034.651	9665.09	0.0008366	0.000811
1035.228	9659.71	0.001621	0.0008146
1035.805	9654.33	0.001188	-9.57E-05
1036.381	9648.96	0.000637	-2.12E-05
1036.958	9643.59	0.001787	0.001171
1037.535	9638.23	0.001038	0.0002438
1038.111	9632.88	0.0007578	1.78E-05
1038.688	9627.53	0.0006995	0.001397
1039.265	9622.19	0.001275	0.0006191
1039.842	9616.85	0.0008739	0.001816
1040.418	9611.52	0.001153	0.0009503
1040.995	9606.19	0.0008787	0.000345
1041.572	9600.88	0.001572	0.00126
1042.148	9595.56	-6.41E-05	0.0001328
1042.725	9590.26	0.0006374	-0.0004757
1043.302	9584.95	0.0004439	1.22E-05
1043.879	9579.66	0.001476	0.0009122
1044.455	9574.37	0.0008323	0.0004893
1045.032	9569.09	0.001727	0.001422
1045.609	9563.81	0.001654	0.001385
1046.185	9558.54	0.001773	0.001138
1046.762	9553.27	0.001618	0.001158
1047.339	9548.01	0.002623	0.0018
1047.915	9542.75	0.002699	0.002039
1048.492	9537.51	0.001484	0.001999
1049.069	9532.26	0.0003764	0.001085
1049.646	9527.03	0.002497	0.00268
1050.222	9521.79	0.003089	0.003203
1050.799	9516.57	0.002804	0.002698
1051.376	9511.35	0.001975	0.00249
1051.952	9506.13	0.0003983	0.0002214
1052.529	9500.92	0.002636	0.003079
1053.106	9495.72	0.001478	0.0005925
1053.683	9490.52	0.001304	0.001171
1054.259	9485.33	0.001515	0.0004326
1054.836	9480.15	0.001738	0.001264
1055.413	9474.97	0.0005386	0.0005393
1055.989	9469.79	-0.0002052	0.0003002
1056.566	9464.62	-0.0007616	8.66E-05
1057.143	9459.46	-0.001096	-0.001355
1057.72	9454.3	0.0005523	-0.0005442
1058.296	9449.15	0.001788	0.001277
1058.873	9444	0.0004477	0.0001127
1059.45	9438.86	-6.37E-05	0.001135
1060.026	9433.73	-0.0004742	0.0001648
1060.603	9428.6	0.001205	0.000354
1061.18	9423.47	-0.0006293	-0.0004771
1061.756	9418.36	0.001289	0.0001009
1062.333	9413.24	0.0005467	-0.0004734
1062.91	9408.14	4.75E-05	0.001568
1063.487	9403.03	0.002674	0.001256
1064.063	9397.94	0.001423	-0.0001526
1064.64	9392.85	0.0009421	-0.0003294
1065.217	9387.76	0.0005691	-0.0004556
1065.793	9382.68	-0.001388	-0.0002016
1066.37	9377.61	-0.0009258	0.0007661
1066.947	9372.54	0.0001045	0.0001281
1067.524	9367.47	0.001499	0.0007313
1068.1	9362.42	0.0005104	0.0005218
1068.677	9357.36	-0.0008433	-0.0007008
1069.254	9352.32	0.0005103	0.0007617
1069.83	9347.28	0.001558	0.00116
1070.407	9342.24	0.001927	0.0007507
1070.984	9337.21	-0.000304	-0.001759
1071.561	9332.18	0.0003612	0.0006033
1072.137	9327.16	-0.001116	-0.002729
1072.714	9322.15	-0.001055	-0.003256
1073.291	9317.14	0.0008628	-0.0003538
1073.867	9312.14	0.0002652	-0.0005599
1074.444	9307.14	-2.80E-05	3.26E-05
1075.021	9302.15	0.001772	-0.0006874
1075.598	9297.16	0.002736	0.0006276
1076.174	9292.18	0.002814	0.0006333
1076.751	9287.2	0.002898	0.001019
1077.328	9282.23	0.0002511	0.0002987
1077.904	9277.26	0.0006607	0.0005419
1078.481	9272.3	0.003055	0.001694
1079.058	9267.34	0.003466	0.001841
1079.634	9262.39	0.0008923	0.0009171
1080.211	9257.45	0.0017	0.0009083
1080.788	9252.51	0.001722	0.001286
1081.365	9247.57	0.0007529	-0.001979
1081.941	9242.65	0.0009629	9.67E-05
1082.518	9237.72	0.0006728	0.0003698
1083.095	9232.8	0.0005981	-0.0007002
1083.671	9227.89	0.0001362	-0.001247
1084.248	9222.98	-0.001012	-0.0006475
1084.825	9218.08	0.0004329	0.00018
1085.402	9213.18	0.000239	-6.23E-05
1085.978	9208.29	0.000929	-0.001258
1086.555	9203.4	0.0001549	-0.001548
1087.132	9198.52	0.002607	-0.0001093
1087.708	9193.64	0.001131	-0.001156
1088.285	9188.77	0.001175	-0.001186
1088.862	9183.9	0.001887	8.29E-05
1089.439	9179.04	0.0008635	-0.0007257
1090.015	9174.18	0.0001657	-0.001004
1090.592	9169.33	0.001926	0.0004215
1091.169	9164.49	-0.0003995	-0.002201
1091.745	9159.65	-0.0008973	-0.002974
1092.322	9154.81	0.003266	0.001622
1092.899	9149.98	0.0005722	-0.001865
1093.475	9145.15	0.0005377	-0.001737
1094.052	9140.33	0.002316	-0.001548
1094.629	9135.52	0.0004018	-0.002597
1095.206	9130.71	0.0008768	-0.001872
1095.782	9125.9	0.001173	-0.001296
1096.359	9121.1	0.003161	5.58E-06
1096.936	9116.3	0.003862	0.0008963
1097.512	9111.51	0.004426	0.0008077
1098.089	9106.73	0.003993	0.0007767
1098.666	9101.95	0.00198	-0.0001519
1099.243	9097.17	0.004063	0.002248
1099.819	9092.4	0.002148	0.0002856
