Wavelength [nm]	Wavenumbers [1/cm]	LED395nm_Intensity_baselined
175.764	56894.47	-32.94
176.337	56709.57	-8.248
176.910	56525.87	-24.53
177.483	56343.35	0.7412
178.056	56162.01	-18.25
178.629	55981.83	-23.03
179.202	55802.81	-14.74
179.776	55624.92	-11.43
180.349	55448.17	-1.461
180.922	55272.54	-11.44
181.495	55098.01	-17.62
182.068	54924.58	-0.4549
182.641	54752.25	-4.677
183.214	54580.99	-26.14
183.787	54410.79	-23.14
184.360	54241.66	-17.23
184.933	54073.58	4.28
185.506	53906.53	37.44
186.079	53740.51	21.73
186.652	53575.51	0.4772
187.226	53411.52	14.16
187.799	53248.54	26.65
188.372	53086.54	32.63
188.945	52925.53	13.55
189.518	52765.49	0.8835
190.091	52606.41	17.18
190.664	52448.29	29.46
191.237	52291.12	20.36
191.810	52134.89	16.66
192.383	51979.59	26.26
192.956	51825.21	25.86
193.529	51671.75	26.97
194.102	51519.19	40.84
194.675	51367.53	34.02
195.249	51216.76	13.17
195.822	51066.88	8.962
196.395	50917.86	11.17
196.968	50769.72	21.54
197.541	50622.43	7.083
198.114	50476.00	22.85
198.687	50330.41	-4.94
199.260	50185.66	29.45
199.833	50041.74	4.366
200.406	49898.64	20.65
200.979	49756.36	13.37
201.552	49614.89	22.67
202.125	49474.22	31.48
202.699	49334.34	43.22
203.272	49195.26	16.27
203.845	49056.95	6.275
204.418	48919.42	17.46
204.991	48782.66	19.35
205.564	48646.66	14.46
206.137	48511.42	22.06
206.710	48376.93	34.35
207.283	48243.18	22.34
207.856	48110.17	-3.248
208.429	47977.90	-7.434
209.002	47846.34	1.06
209.575	47715.51	4.07
210.149	47585.39	12.15
210.722	47455.98	20.81
211.295	47327.26	-9.614
211.868	47199.25	1.591
212.441	47071.93	30.08
213.014	46945.29	-14.93
213.587	46819.33	17.26
214.160	46694.04	-9.942
214.733	46569.43	-2.942
215.306	46445.48	1.442
215.879	46322.18	-17.42
216.452	46199.54	2.46
217.025	46077.54	5.852
217.599	45956.19	3.345
218.172	45835.48	-10.74
218.745	45715.40	-12.74
219.318	45595.94	-7.859
219.891	45477.11	-18.15
220.464	45358.90	-20.84
221.037	45241.30	-16.64
221.610	45124.31	-26.54
222.183	45007.92	-26.64
222.756	44892.13	-27.93
223.329	44776.93	-12.24
223.902	44662.32	-9.036
224.475	44548.30	-3.159
225.049	44434.86	-13.01
225.622	44322.00	19.1
226.195	44209.71	-14.43
226.768	44097.98	-15.76
227.341	43986.82	-32
227.914	43876.22	-8.264
228.487	43766.17	-18.04
229.060	43656.68	-11.54
229.633	43547.73	-12.24
230.206	43439.32	-11.64
230.779	43331.45	-8.156
231.352	43224.11	-20.56
231.925	43117.31	-35.12
232.498	43011.03	-20.45
233.072	42905.28	-24.56
233.645	42800.04	-38.31
234.218	42695.32	-18.06
234.791	42591.11	-26.25
235.364	42487.40	-28.51
235.937	42384.20	-7.448
236.510	42281.51	-4.246
237.083	42179.30	-23.14
237.656	42077.59	-11.26
238.229	41976.37	-30.65
238.802	41875.64	-33.85
239.375	41775.39	-37.01
239.948	41675.61	-15.22
240.522	41576.31	-0.4615
241.095	41477.49	-7.08
241.668	41379.13	-43.79
242.241	41281.24	-20.25
242.814	41183.81	-17.42
243.387	41086.84	-0.8476
243.960	40990.32	-6.144
244.533	40894.26	-2.446
245.106	40798.65	-7.946
245.679	40703.48	-12.94
246.252	40608.76	-5.354
246.825	40514.47	-14.85
247.398	40420.62	-19.02
247.972	40327.21	-5.761
248.545	40234.22	-12.94
249.118	40141.67	-8.533
249.691	40049.54	2.035
250.264	39957.83	-10.65
250.837	39866.54	-14.14
251.410	39775.67	-18.44
251.983	39685.21	-35.84
252.556	39595.16	-21.65
253.129	39505.51	-39.82
253.702	39416.28	-10.66
254.275	39327.44	-24.14
254.848	39239.01	-17.74
255.422	39150.97	-13.76
255.995	39063.32	-28.02
256.568	38976.07	-13.04
257.141	38889.21	-2.745
257.714	38802.73	-0.2771
258.287	38716.64	-23.04
258.860	38630.92	-15.94
259.433	38545.59	-5.746
260.006	38460.63	-19.94
260.579	38376.05	-17.84
261.152	38291.83	-10.04
261.725	38207.99	-7.638
262.298	38124.51	-2.962
262.872	38041.40	-15.14
263.445	37958.65	-20.82
264.018	37876.25	-0.09165
264.591	37794.22	-31.24
265.164	37712.54	-33.73
265.737	37631.21	-22.55
266.310	37550.23	-18.24
266.883	37469.60	-9.044
267.456	37389.31	-14.15
268.029	37309.37	-21.54
268.602	37229.77	-17.54
269.175	37150.51	-8.754
269.748	37071.58	-16.85
270.321	36992.99	-19.53
270.895	36914.73	-12.16
271.468	36836.80	-16.93
272.041	36759.20	-8.048
272.614	36681.93	-7.946
273.187	36604.98	-9.336
273.760	36528.35	-4.344
274.333	36452.05	-4.444
274.906	36376.06	-6.346
275.479	36300.38	-11.55
276.052	36225.03	-17.54
276.625	36149.98	-18.43
277.198	36075.24	-7.857
277.771	36000.82	-17.26
278.345	35926.70	-23.45
278.918	35852.88	-34.02
279.491	35779.36	-17.97
280.064	35706.15	-33.85
280.637	35633.24	-42.99
281.210	35560.62	-8.652
281.783	35488.30	-3.344
282.356	35416.27	-26.34
282.929	35344.54	-16.74
283.502	35273.09	-5.94
284.075	35201.93	-1.051
284.648	35131.06	-7.955
285.221	35060.47	-16.25
285.795	34990.17	-19.45
286.368	34920.15	-29.43
286.941	34850.41	-23.04
287.514	34780.94	-18.34
288.087	34711.76	-17.23
288.660	34642.84	-10.44
289.233	34574.20	-13.64
289.806	34505.83	-15.04
290.379	34437.73	-9.046
290.952	34369.90	-13.25
291.525	34302.34	-16.65
292.098	34235.04	-22.02
292.671	34168.01	-2.66
293.245	34101.23	-13.13
293.818	34034.72	-10.57
294.391	33968.47	-38.69
294.964	33902.47	-7.677
295.537	33836.73	-23.06
296.110	33771.24	-32.54
296.683	33706.01	-20.04
297.256	33641.03	-10.54
297.829	33576.30	-20.94
298.402	33511.82	-9.159
298.975	33447.58	-31.44
299.548	33383.59	-29.62
300.121	33319.85	-11.81
300.695	33256.34	13.12
301.268	33193.08	-5.056
301.841	33130.06	-30.62
302.414	33067.28	-28.93
302.987	33004.74	-18.85
303.560	32942.43	-20.44
304.133	32880.36	-20.34
304.706	32818.52	-16.74
305.279	32756.91	-24.04
305.852	32695.53	-21.45
306.425	32634.38	-31.83
306.998	32573.47	-14.64
307.571	32512.77	-15.94
308.144	32452.31	-17.64
308.718	32392.07	-14.03
309.291	32332.05	-4.879
309.864	32272.25	-31.48
310.437	32212.68	15.69
311.010	32153.32	-14.53
311.583	32094.18	-8.545
312.156	32035.26	-19.94
312.729	31976.56	-4.448
313.302	31918.07	-16.04
313.875	31859.79	-7.352
314.448	31801.73	-17.02
315.021	31743.87	1.031
315.594	31686.23	-17.02
316.168	31628.80	-1.655
316.741	31571.57	-1.259
317.314	31514.55	-15.24
317.887	31457.74	-19.14
318.460	31401.13	-15.44
319.033	31344.73	-14.54
319.606	31288.52	-10.74
320.179	31232.52	-1.044
320.752	31176.72	-1.944
321.325	31121.12	-2.575
321.898	31065.71	-42.13
322.471	31010.50	-29
323.044	30955.49	4.847
323.618	30900.67	-0.7489
324.191	30846.05	-11.23
324.764	30791.62	-6.864
325.337	30737.38	-22.32
325.910	30683.33	-8.349
326.483	30629.47	-9.244
327.056	30575.80	-1.744
327.629	30522.32	-14.14
328.202	30469.03	3.253
328.775	30415.92	-3.954
329.348	30362.99	-17.95
329.921	30310.25	-23.55
330.494	30257.69	-29.42
331.068	30205.32	-17.25
331.641	30153.12	-9.653
332.214	30101.11	-13.34
332.787	30049.27	-10.74
333.360	29997.62	-8.039
333.933	29946.14	-3.846
334.506	29894.83	-5.944
335.079	29843.70	-12.04
335.652	29792.75	-14.94
336.225	29741.97	-20.64
336.798	29691.36	-18.14
337.371	29640.93	-18.03
337.944	29590.66	-9.312
338.518	29540.57	12.45
339.091	29490.64	8.242
339.664	29440.89	-8.939
340.237	29391.30	-13.25
340.810	29341.88	-16.96
341.383	29292.62	-27.94
341.956	29243.53	-36.74
342.529	29194.61	-15.74
343.102	29145.84	-20.34
343.675	29097.24	-25.04
344.248	29048.80	-21.33
344.821	29000.53	-5.455
345.394	28952.41	-15.02
345.967	28904.45	1.156
346.541	28856.65	0.8557
347.114	28809.01	0.0394
347.687	28761.52	-15.74
348.260	28714.20	-23.92
348.833	28667.02	-9.55
349.406	28620.01	-2.746
349.979	28573.14	-5.444
350.552	28526.43	-11.04
351.125	28479.87	-11.94
351.698	28433.47	-4.352
352.271	28387.21	-14.05
352.844	28341.10	-19.51
353.417	28295.15	7.868
353.991	28249.34	15.05
354.564	28203.68	14.14
355.137	28158.17	0.9624
355.710	28112.81	0.4875
356.283	28067.59	23.74
356.856	28022.51	17.46
357.429	27977.58	4.256
358.002	27932.80	9.256
358.575	27888.16	5.865
359.148	27843.66	22.75
359.721	27799.30	17.14
360.294	27755.08	0.3923
360.867	27711.00	27.76
361.441	27667.07	30.83
362.014	27623.27	-0.9201
362.587	27579.61	1.162
363.160	27536.09	6.868
363.733	27492.71	17.65
364.306	27449.46	23.46
364.879	27406.35	49.16
365.452	27363.37	57.86
366.025	27320.53	58.15
366.598	27277.82	48.96
367.171	27235.24	48.56
367.744	27192.80	56.36
368.317	27150.49	58.57
368.891	27108.31	68.36
369.464	27066.27	80.85
370.037	27024.35	83.47
370.610	26982.56	99.67
371.183	26940.90	118.6
371.756	26899.37	121.5
372.329	26857.97	155.4
372.902	26816.69	151
373.475	26775.54	197.6
374.048	26734.52	232
374.621	26693.63	260.4
375.194	26652.85	299
375.767	26612.21	341
376.341	26571.68	400.6
376.914	26531.28	450
377.487	26491.00	538.8
378.060	26450.85	644.8
378.633	26410.81	726.6
379.206	26370.90	866.8
379.779	26331.11	1034
380.352	26291.43	1215
380.925	26251.88	1421
381.498	26212.44	1677
382.071	26173.13	1982
382.644	26133.93	2354
383.217	26094.85	2803
383.790	26055.88	3355
384.364	26017.03	3996
384.937	25978.30	4756
385.510	25939.68	5680
386.083	25901.18	6787
386.656	25862.79	8100
387.229	25824.52	9674
387.802	25786.35	1.151E4
388.375	25748.30	1.357E4
388.948	25710.37	1.587E4
389.521	25672.54	1.843E4
390.094	25634.83	2.121E4
390.667	25597.22	2.412E4
391.240	25559.73	2.701E4
391.814	25522.34	2.981E4
392.387	25485.07	3.238E4
392.960	25447.90	3.446E4
393.533	25410.84	3.579E4
394.106	25373.89	3.651E4
394.679	25337.05	3.633E4
395.252	25300.31	3.547E4
395.825	25263.68	3.354E4
396.398	25227.16	3.133E4
396.971	25190.74	2.879E4
397.544	25154.43	2.624E4
398.117	25118.22	2.379E4
398.690	25082.12	2.17E4
399.264	25046.11	1.983E4
399.837	25010.22	1.811E4
400.410	24974.42	1.664E4
400.983	24938.73	1.529E4
401.556	24903.14	1.406E4
402.129	24867.65	1.288E4
402.702	24832.26	1.179E4
403.275	24796.97	1.079E4
403.848	24761.78	9797
404.421	24726.69	8830
404.994	24691.71	7968
405.567	24656.82	7198
406.140	24622.02	6466
406.714	24587.33	5775
407.287	24552.74	5155
407.860	24518.24	4621
408.433	24483.84	4153
409.006	24449.53	3740
409.579	24415.32	3385
410.152	24381.21	3082
410.725	24347.19	2819
411.298	24313.26	2577
411.871	24279.43	2372
412.444	24245.70	2197
413.017	24212.06	2025
413.590	24178.51	1862
414.164	24145.05	1741
414.737	24111.69	1608
415.310	24078.42	1470
415.883	24045.24	1357
416.456	24012.15	1243
417.029	23979.15	1138
417.602	23946.25	1033
418.175	23913.43	953.9
418.748	23880.70	846.8
419.321	23848.07	747.8
419.894	23815.52	688.5
420.467	23783.06	606
421.040	23750.69	549.2
421.613	23718.41	498.5
422.187	23686.21	460.8
422.760	23654.10	425.7
423.333	23622.08	376.4
423.906	23590.15	336.3
424.479	23558.30	315.8
425.052	23526.54	280.8
425.625	23494.86	252.6
426.198	23463.27	245.4
426.771	23431.76	222.5
427.344	23400.34	196.2
427.917	23369.00	183.8
428.490	23337.75	165.5
429.063	23306.58	156.4
429.637	23275.49	155.7
430.210	23244.48	140.5
430.783	23213.56	140.5
431.356	23182.72	140.9
431.929	23151.96	126.9
432.502	23121.28	115.4
433.075	23090.69	87.36
433.648	23060.17	82.16
434.221	23029.74	86.76
434.794	22999.39	89.24
435.367	22969.11	70.47
435.940	22938.92	82.72
436.513	22908.80	50.72
437.087	22878.76	28.8
437.660	22848.81	53.95
438.233	22818.93	68.13
438.806	22789.13	57.73
439.379	22759.40	40.56
439.952	22729.76	42.46
440.525	22700.19	53.16
441.098	22670.70	39.26
441.671	22641.28	22.46
442.244	22611.94	25.76
442.817	22582.68	35.24
443.390	22553.49	24.85
443.963	22524.38	17.96
444.537	22495.34	21.19
445.110	22466.38	40.85
445.683	22437.49	49.03
446.256	22408.68	26.85
446.829	22379.94	14.96
447.402	22351.27	16.86
447.975	22322.68	18.56
448.548	22294.16	24.86
449.121	22265.71	22.36
449.694	22237.33	21.86
450.267	22209.03	23.24
450.840	22180.80	8.358
451.413	22152.64	9.756
451.987	22124.55	9.734
452.560	22096.54	-3.322
453.133	22068.59	8.551
453.706	22040.72	9.759
454.279	22012.91	13.15
454.852	21985.18	9.258
455.425	21957.51	3.857
455.998	21929.92	14.96
456.571	21902.39	20.46
457.144	21874.94	16.15
457.717	21847.55	3.278
458.290	21820.23	28.64
458.863	21792.98	12.47
459.436	21765.79	22.4
460.010	21738.68	-11.2
460.583	21711.63	2.856
461.156	21684.65	11.16
461.729	21657.74	10.56
462.302	21630.89	5.059
462.875	21604.11	10.96
463.448	21577.39	13.86
464.021	21550.74	10.86
464.594	21524.16	5.755
465.167	21497.64	3.045
465.740	21471.19	-11.44
466.313	21444.81	-6.128
466.886	21418.48	5.241
467.460	21392.23	-4.334
468.033	21366.03	-2.643
468.606	21339.90	-0.848
469.179	21313.84	-3.642
469.752	21287.84	-12.34
470.325	21261.90	-2.746
470.898	21236.02	-1.044
471.471	21210.21	-4.544
472.044	21184.46	-2.838
472.617	21158.77	7.766
473.190	21133.15	20.06
473.763	21107.58	18.72
474.336	21082.08	-3.975
474.910	21056.64	-24.6
475.483	21031.26	0.4549
476.056	21005.95	16.03
476.629	20980.69	3.067
477.202	20955.49	7.754
477.775	20930.36	2.958
478.348	20905.28	-8.243
478.921	20880.27	-5.844
479.494	20855.31	-5.742
480.067	20830.42	-3.238
480.640	20805.58	4.034
481.213	20780.80	-19.22
481.786	20756.08	3.076
482.360	20731.42	16.5
482.933	20706.82	-12.03
483.506	20682.28	-13.63
484.079	20657.80	2.154
484.652	20633.37	6.054
485.225	20609.00	11.85
485.798	20584.69	-13.74
486.371	20560.43	5.855
486.944	20536.24	-8.449
487.517	20512.10	-22.54
488.090	20488.01	-18.94
488.663	20463.99	-12
489.236	20440.02	22.22
489.809	20416.10	-6.446
490.383	20392.24	-7.543
490.956	20368.44	-7.54
491.529	20344.69	-3.846
492.102	20321.00	-3.944
492.675	20297.36	3.252
493.248	20273.78	-1.043
493.821	20250.25	1.356
494.394	20226.78	4.456
494.967	20203.36	5.858
495.540	20180.00	7.752
496.113	20156.68	3.245
496.686	20133.43	-6.94
497.259	20110.22	-3.825
497.833	20087.08	7.438
498.406	20063.98	-2.544
498.979	20040.94	-8.738
499.552	20017.94	-6.646
500.125	19995.01	-6.444
500.698	19972.12	-4.044
501.271	19949.29	-6.144
501.844	19926.51	-1.743
502.417	19903.78	0.6517
502.990	19881.10	-7.844
503.563	19858.48	-7.638
504.136	19835.90	-1.442
504.709	19813.38	0.3572
505.283	19790.91	0.953
505.856	19768.49	-2.044
506.429	19746.12	-4.452
507.002	19723.80	-12.64
507.575	19701.53	-6.148
508.148	19679.31	-9.942
508.721	19657.14	-18.74
509.294	19635.02	-3.244
509.867	19612.95	-6.746
510.440	19590.93	-12.03
511.013	19568.96	8.941
511.586	19547.04	-6.849
512.159	19525.17	-10.82
512.733	19503.35	7.231
513.306	19481.57	-4.738
513.879	19459.85	-7.146
514.452	19438.17	-9.642
515.025	19416.54	-6.846
515.598	19394.96	-22.84
516.171	19373.43	-5.945
516.744	19351.94	-21.54
517.317	19330.50	-17.04
517.890	19309.11	-16.66
518.463	19287.77	-38.71
519.036	19266.47	1.239
519.609	19245.22	-12.54
520.183	19224.02	-14.13
520.756	19202.87	-5.541
521.329	19181.76	2.949
521.902	19160.69	0.5585
522.475	19139.68	2.155
523.048	19118.71	0.05714
523.621	19097.78	-10.04
524.194	19076.91	-11.24
524.767	19056.07	-22.94
525.340	19035.28	-16.04
525.913	19014.54	-10.83
526.486	18993.84	5.844
527.059	18973.19	-4.65
527.632	18952.59	-9.125
528.206	18932.02	2.136
528.779	18911.50	-11.02
529.352	18891.03	2.074
529.925	18870.60	21.94
530.498	18850.22	28.95
531.071	18829.88	20.26
531.644	18809.58	-5.044
532.217	18789.32	-6.94
532.790	18769.11	3.263
533.363	18748.95	14.56
533.936	18728.82	12.84
534.509	18708.74	1.468
535.082	18688.71	10.14
535.656	18668.71	3.865
536.229	18648.76	7.669
536.802	18628.85	21.65
537.375	18608.99	22.56
537.948	18589.16	6.065
538.521	18569.38	-6.241
539.094	18549.64	1.556
539.667	18529.94	7.556
540.240	18510.29	7.758
540.813	18490.67	10.87
541.386	18471.10	27.83
541.959	18451.57	2.676
542.532	18432.08	17.95
543.106	18412.63	14.16
543.679	18393.22	19.65
544.252	18373.85	10.07
544.825	18354.53	17.35
545.398	18335.24	31.65
545.971	18315.99	7.264
546.544	18296.79	-16.04
547.117	18277.62	1.062
547.690	18258.50	31.36
548.263	18239.41	27.95
548.836	18220.37	20.55
549.409	18201.36	11.74
549.982	18182.40	-2.325
550.556	18163.47	10.23
551.129	18144.59	-4.823
551.702	18125.74	5.735
552.275	18106.93	-7.331
552.848	18088.16	0.9508
553.421	18069.43	11.95
553.994	18050.74	2.657
554.567	18032.08	4.956
555.140	18013.47	9.754
555.713	17994.89	4.951
556.286	17976.36	-2.855
556.859	17957.86	-14.6
557.432	17939.39	24.53
558.006	17920.97	5.954
558.579	17902.58	4.753
559.152	17884.24	0.7451
559.725	17865.92	-11.53
560.298	17847.65	-9.645
560.871	17829.42	-7.644
561.444	17811.22	-5.944
562.017	17793.05	1.256
562.590	17774.93	3.45
563.163	17756.84	-14.63
563.736	17738.79	5.558
564.309	17720.78	7.043
564.882	17702.80	-5.226
565.455	17684.86	7.448
566.029	17666.95	2.455
566.602	17649.08	-3.543
567.175	17631.25	-6.241
567.748	17613.45	-5.744
568.321	17595.69	-9.042
568.894	17577.97	-3.345
569.467	17560.28	-6.444
570.040	17542.63	0.4576
570.613	17525.01	5.056
571.186	17507.42	5.853
571.759	17489.88	1.752
572.332	17472.36	-1.927
572.905	17454.89	10.64
573.479	17437.44	-0.03705
574.052	17420.04	-1.737
574.625	17402.66	3.85
575.198	17385.32	-4.837
575.771	17368.02	0.8531
576.344	17350.75	-3.343
576.917	17333.52	4.756
577.490	17316.31	22.96
578.063	17299.15	24.55
578.636	17282.01	12.55
579.209	17264.92	0.6707
579.782	17247.85	14.62
580.355	17230.82	-9.132
580.929	17213.82	-1.651
581.502	17196.86	-3.141
582.075	17179.93	-1.032
582.648	17163.03	10.45
583.221	17146.16	1.162
583.794	17129.33	-4.142
584.367	17112.53	-5.144
584.940	17095.77	7.659
585.513	17079.04	20.74
586.086	17062.34	-5.167
586.659	17045.67	-37.5
587.232	17029.03	5.06
587.805	17012.43	8.551
588.379	16995.86	4.868
588.952	16979.32	11.83
589.525	16962.82	-17.6
590.098	16946.34	1.239
590.671	16929.90	5.654
591.244	16913.49	5.856
591.817	16897.12	-23.64
592.390	16880.77	31.96
592.963	16864.45	10.45
593.536	16848.17	-8.831
594.109	16831.92	11.04
594.682	16815.70	-2.695
595.255	16799.51	38.26
595.829	16783.35	-33.58
596.402	16767.23	5.121
596.975	16751.13	-2.236
597.548	16735.06	1.652
598.121	16719.03	-1.941
598.694	16703.03	-10.94
599.267	16687.05	-12.14
599.840	16671.11	-9.943
600.413	16655.20	10.46
600.986	16639.32	8.047
601.559	16623.47	-7.54
602.132	16607.64	-3.523
602.705	16591.85	15.32
603.278	16576.09	-12.56
603.852	16560.36	-25.9
604.425	16544.66	10.81
604.998	16528.99	-14.92
605.571	16513.35	4.741
606.144	16497.73	-10.54
606.717	16482.15	-13.64
607.290	16466.60	2.856
607.863	16451.07	-2.246
608.436	16435.58	-9.951
609.009	16420.11	-23.05
609.582	16404.68	-26.73
610.155	16389.27	-16.63
610.728	16373.89	-8.381
611.302	16358.54	-31.4
611.875	16343.22	-10.15
612.448	16327.92	-8.346
613.021	16312.66	19.83
613.594	16297.43	1.866
614.167	16282.22	-14.84
614.740	16267.04	-13.14
615.313	16251.89	-0.6442
615.886	16236.77	-2.347
616.459	16221.67	-8.74
617.032	16206.61	-4.627
617.605	16191.57	12.34
618.178	16176.56	-0.4457
618.752	16161.58	-1.634
619.325	16146.62	8.454
619.898	16131.69	13.65
620.471	16116.79	3.065
621.044	16101.92	-1.141
621.617	16087.08	7.853
622.190	16072.26	-1.943
622.763	16057.47	-11.74
623.336	16042.71	-15.66
623.909	16027.97	-36.64
624.482	16013.26	-26.51
625.055	15998.58	3.66
625.628	15983.93	6.747
626.202	15969.30	0.49
626.775	15954.70	19.64
627.348	15940.12	10.37
627.921	15925.58	14.85
628.494	15911.06	6.562
629.067	15896.56	0.8586
629.640	15882.09	9.255
630.213	15867.65	21.96
630.786	15853.23	15.66
631.359	15838.84	10.26
631.932	15824.48	9.247
632.505	15810.14	-1.149
633.078	15795.83	-5.236
633.652	15781.55	-0.2327
634.225	15767.29	6.253
634.798	15753.05	8.162
635.371	15738.84	14.75
635.944	15724.66	16.16
636.517	15710.50	4.261
637.090	15696.37	1.257
637.663	15682.26	10.76
638.236	15668.18	26.36
638.809	15654.13	31.15
639.382	15640.10	19.26
639.955	15626.09	20.26
640.528	15612.11	27.44
641.101	15598.15	18.44
641.675	15584.22	6.16
642.248	15570.32	0.3596
642.821	15556.44	0.1564
643.394	15542.58	5.052
643.967	15528.75	19.65
644.540	15514.94	12.46
645.113	15501.16	1.157
645.686	15487.40	11.36
646.259	15473.67	5.756
646.832	15459.96	5.557
647.405	15446.27	6.547
647.978	15432.61	-1.536
648.551	15418.98	4.16
649.125	15405.36	6.151
649.698	15391.78	2.66
650.271	15378.21	4.154
650.844	15364.67	4.056
651.417	15351.15	-8.137
651.990	15337.66	-10.64
652.563	15324.19	4.155
653.136	15310.74	6.958
653.709	15297.32	14.56
654.282	15283.92	12.44
654.855	15270.55	-4.736
655.428	15257.20	2.49
656.001	15243.87	28.94
656.575	15230.56	18.71
657.148	15217.28	-6.919
657.721	15204.02	0.4477
658.294	15190.79	-2.341
658.867	15177.57	-7.74
659.440	15164.38	-4.944
660.013	15151.22	4.955
660.586	15138.07	17.96
661.159	15124.95	-2.446
661.732	15111.85	-8.445
662.305	15098.78	-10.33
662.878	15085.72	2.06
663.451	15072.69	4.837
664.025	15059.68	-8.228
664.598	15046.70	0.9612
665.171	15033.74	12.74
665.744	15020.79	5.363
666.317	15007.88	-7.935
666.890	14994.98	-10.44
667.463	14982.10	0.6545
668.036	14969.25	-2.344
668.609	14956.42	-0.4477
669.182	14943.61	-10.94
669.755	14930.83	-11.33
670.328	14918.06	0.7619
670.901	14905.32	5.558
671.475	14892.60	6.254
672.048	14879.90	5.062
672.621	14867.22	10.35
673.194	14854.56	5.261
673.767	14841.93	-4.237
674.340	14829.32	8.151
674.913	14816.73	15.96
675.486	14804.16	-3.944
676.059	14791.61	-4.844
676.632	14779.08	-4.944
677.205	14766.57	-5.144
677.778	14754.09	-6.132
678.351	14741.62	4.562
678.924	14729.18	8.639
679.498	14716.76	-2.243
680.071	14704.35	-9.833
680.644	14691.97	-2.652
681.217	14679.61	6.549
681.790	14667.28	3.958
682.363	14654.96	-1.342
682.936	14642.66	-11.64
683.509	14630.38	-8.945
684.082	14618.13	-13.33
684.655	14605.89	7.947
685.228	14593.68	-4.449
685.801	14581.48	-8.95
686.374	14569.31	-13.33
686.948	14557.15	-4.849
687.521	14545.02	-2.355
688.094	14532.90	-11.14
688.667	14520.81	-1.952
689.240	14508.74	-16.74
689.813	14496.68	-7.847
690.386	14484.65	-3.144
690.959	14472.64	-5.344
691.532	14460.64	-3.647
692.105	14448.67	-11.44
692.678	14436.72	-1.829
693.251	14424.78	12.34
693.824	14412.87	-5.844
694.398	14400.97	-5.653
694.971	14389.10	-10.74
695.544	14377.24	-10.34
696.117	14365.41	-16.84
696.690	14353.59	-24.14
697.263	14341.79	-8.449
697.836	14330.01	1.355
698.409	14318.26	-9.144
698.982	14306.52	-8.137
699.555	14294.80	7.344
700.128	14283.10	-10.85
700.701	14271.41	-18.44
701.274	14259.75	-12.82
701.848	14248.11	1.27
702.421	14236.48	9.442
702.994	14224.88	0.4673
703.567	14213.29	-5.338
704.140	14201.72	8.747
704.713	14190.18	17.15
705.286	14178.65	9.657
705.859	14167.13	9.755
706.432	14155.64	-2.646
707.005	14144.17	-9.335
707.578	14132.71	5.855
708.151	14121.28	4.247
708.724	14109.86	-3.642
709.298	14098.46	-1.838
709.871	14087.07	1.753
710.444	14075.71	1.456
711.017	14064.37	-0.5418
711.590	14053.04	5.352
712.163	14041.73	-3.239
712.736	14030.44	-1.944
713.309	14019.17	-9.845
713.882	14007.92	-23.94
714.455	13996.68	-11.84
715.028	13985.46	-5.555
715.601	13974.26	-19.63
716.174	13963.08	-4.042
716.747	13951.91	-2.247
717.321	13940.77	-4.342
717.894	13929.64	-4.544
718.467	13918.53	-25.72
719.040	13907.44	-13.75
719.613	13896.36	10.14
720.186	13885.30	5.657
720.759	13874.26	14.66
721.332	13863.24	-8.144
721.905	13852.23	-6.54
722.478	13841.25	0.9524
723.051	13830.28	-4.053
723.624	13819.32	-13.54
724.197	13808.39	-11.15
724.771	13797.47	-15.05
725.344	13786.57	-27.22
725.917	13775.69	-25.24
726.490	13764.82	-12.75
727.063	13753.97	-4.848
727.636	13743.14	-16.94
728.209	13732.32	-15.94
728.782	13721.52	-2.944
729.355	13710.74	-1.749
729.928	13699.98	-11.74
730.501	13689.23	-9.853
731.074	13678.50	-18.93
731.647	13667.78	-5.268
732.221	13657.09	-21.13
732.794	13646.41	-14.05
733.367	13635.74	-16.54
733.940	13625.10	-7.052
734.513	13614.47	4.249
735.086	13603.85	5.956
735.659	13593.25	-9.042
736.232	13582.67	-5.444
736.805	13572.11	-6.145
737.378	13561.56	-9.946
737.951	13551.03	-13.12
738.524	13540.51	7.758
739.097	13530.02	9.837
739.671	13519.53	-3.085
740.244	13509.07	-26.92
740.817	13498.62	-21.45
741.390	13488.18	-13.85
741.963	13477.76	-24.54
742.536	13467.36	-16.45
743.109	13456.98	14.25
743.682	13446.61	-3.242
744.255	13436.25	18.35
744.828	13425.91	4.55
745.401	13415.59	-5.539
745.974	13405.29	0.05258
746.547	13395.00	-3.146
747.121	13384.72	-5.101
747.694	13374.46	20.5
748.267	13364.22	-13.9
748.840	13353.99	-26.33
749.413	13343.78	-0.8632
749.986	13333.58	9.151
750.559	13323.40	0.2583
751.132	13313.24	6.056
751.705	13303.09	5.157
752.278	13292.95	7.741
752.851	13282.84	-19.54
753.424	13272.73	-21.02
753.997	13262.65	0.6565
754.570	13252.57	0.8601
755.144	13242.52	3.244
755.717	13232.47	-8.229
756.290	13222.45	9.037
756.863	13212.43	-27.92
757.436	13202.44	-21.35
758.009	13192.46	-20.94
758.582	13182.49	-2.745
759.155	13172.54	4.458
759.728	13162.60	7.846
760.301	13152.68	-11.63
760.874	13142.78	0.457
761.447	13132.88	1.252
762.020	13123.01	-2.191
762.594	13113.15	-32.43
763.167	13103.30	-24.36
763.740	13093.47	-9.661
764.313	13083.65	-7.046
764.886	13073.85	-24.74
765.459	13064.06	-13.75
766.032	13054.28	-2.445
766.605	13044.53	-3.944
767.178	13034.78	-2.247
767.751	13025.05	-9.744
768.324	13015.34	-9.142
768.897	13005.64	-7.846
769.470	12995.95	-9.755
770.044	12986.28	-17.24
770.617	12976.62	-14.25
771.190	12966.98	-5.454
771.763	12957.35	-15.64
772.336	12947.74	-21.44
772.909	12938.14	-24.04
773.482	12928.55	-24.44
774.055	12918.98	-13.54
774.628	12909.42	-12.85
775.201	12899.88	-25.24
775.774	12890.35	-17.43
776.347	12880.83	-3.345
776.920	12871.33	-4.54
777.494	12861.84	-2.547
778.067	12852.37	-4.541
778.640	12842.91	-5.942
779.213	12833.47	-1.848
779.786	12824.03	-10.44
780.359	12814.62	-17.54
780.932	12805.21	-8.945
781.505	12795.82	-11.74
782.078	12786.45	-0.3465
782.651	12777.08	-8.344
783.224	12767.74	-8.615
783.797	12758.40	24.85
784.370	12749.08	17.12
784.944	12739.77	-7.47
785.517	12730.48	-23.32
786.090	12721.20	-8.763
786.663	12711.93	-4.948
787.236	12702.67	-8.941
787.809	12693.43	9.147
788.382	12684.21	-1.341
788.955	12674.99	-0.6446
789.528	12665.79	-16.14
790.101	12656.61	-14.94
790.674	12647.43	-5.063
791.247	12638.27	-28.39
791.820	12629.13	21.32
792.393	12619.99	-0.6532
792.967	12610.87	-6.544
793.540	12601.76	-12.34
794.113	12592.67	-3.354
794.686	12583.59	-6.241
795.259	12574.52	-21.24
795.832	12565.47	2.15
796.405	12556.43	0.2564
796.978	12547.40	2.055
797.551	12538.38	-6.644
798.124	12529.38	-7.135
798.697	12520.39	4.347
799.270	12511.41	-4.96
799.843	12502.45	-17.71
800.417	12493.49	6.039
800.990	12484.56	-3.531
801.563	12475.63	0.951
802.136	12466.72	8.949
802.709	12457.82	9.056
803.282	12448.93	10.66
803.855	12440.05	18.26
804.428	12431.19	2.558
805.001	12422.34	11.86
805.574	12413.51	19.84
806.147	12404.68	3.952
806.720	12395.87	-0.2188
807.293	12387.07	20.04
807.867	12378.28	12.36
808.440	12369.51	11.86
809.013	12360.75	10.16
809.586	12352.00	6.759
810.159	12343.26	5.057
810.732	12334.53	-0.7414
811.305	12325.82	8.155
811.878	12317.12	14.86
812.451	12308.43	16.86
813.024	12299.76	10.55
813.597	12291.09	3.364
814.170	12282.44	11.55
814.743	12273.80	7.658
815.317	12265.18	9.375
815.890	12256.56	20.34
816.463	12247.96	19.76
817.036	12239.37	17.06
817.609	12230.79	16.36
818.182	12222.22	10.76
818.755	12213.67	-2.541
819.328	12205.12	4.257
819.901	12196.59	23.56
820.474	12188.07	16.46
821.047	12179.57	14.36
821.620	12171.07	20.94
822.193	12162.59	11.36
822.766	12154.12	16.47
823.340	12145.66	24.14
823.913	12137.21	19.26
824.486	12128.77	4.472
825.059	12120.35	18.94
825.632	12111.94	33.55
826.205	12103.53	-6.834
826.778	12095.14	23.35
827.351	12086.77	13.16
827.924	12078.40	20.16
828.497	12070.05	20.54
829.070	12061.70	-5.925
829.643	12053.37	11.56
830.216	12045.05	13.05
830.790	12036.74	9.961
831.363	12028.45	4.663
831.936	12020.16	-15.62
832.509	12011.89	17.63
833.082	12003.62	12.16
833.655	11995.37	7.957
834.228	11987.13	2.557
834.801	11978.90	-2.844
835.374	11970.68	-0.1491
835.947	11962.48	-11.34
836.520	11954.28	-4.038
837.093	11946.10	1.774
837.666	11937.93	15.76
838.240	11929.76	17.44
838.813	11921.61	10.86
839.386	11913.47	-4.326
839.959	11905.35	-1.846
840.532	11897.23	3.453
841.105	11889.12	-6.84
841.678	11881.03	-15.84
842.251	11872.94	-7.244
842.824	11864.87	-4.548
843.397	11856.81	-14.33
843.970	11848.76	1.062
844.543	11840.72	7.056
845.116	11832.69	6.53
845.690	11824.67	-10.66
846.263	11816.66	-20.93
846.836	11808.67	-10.56
847.409	11800.68	1.745
847.982	11792.71	-9.336
848.555	11784.74	-12.64
849.128	11776.79	4.453
849.701	11768.84	8.953
850.274	11760.91	-19.44
850.847	11752.99	-10.23
851.420	11745.08	13.55
851.993	11737.18	5.664
852.566	11729.29	12.02
853.140	11721.41	-11.13
853.713	11713.54	-0.7597
854.286	11705.69	6.347
854.859	11697.84	-23.22
855.432	11690.00	7.333
856.005	11682.18	17.25
856.578	11674.36	14.46
857.151	11666.56	-2.743
857.724	11658.76	1.056
858.297	11650.98	1.968
858.870	11643.20	21.94
859.443	11635.44	2.86
860.016	11627.68	5.748
860.589	11619.94	-0.2334
861.163	11612.21	6.146
861.736	11604.49	6.456
862.309	11596.77	15.75
862.882	11589.07	13.16
863.455	11581.38	11.56
864.028	11573.70	8.257
864.601	11566.03	3.256
865.174	11558.37	10.66
865.747	11550.72	16.76
866.320	11543.08	17.76
866.893	11535.44	18.04
867.466	11527.82	9.334
868.039	11520.21	-7.24
868.613	11512.61	-4.324
869.186	11505.02	17.93
869.759	11497.44	1.076
870.332	11489.87	5.052
870.905	11482.31	3.757
871.478	11474.76	-2.641
872.051	11467.22	24.95
872.624	11459.69	1.055
873.197	11452.17	-4.239
873.770	11444.66	6.348
874.343	11437.15	-5.033
874.916	11429.66	6.038
875.489	11422.18	-8.038
876.063	11414.71	-4.327
876.636	11407.25	16.63
877.209	11399.80	-9.513
877.782	11392.35	5.043
878.355	11384.92	12.35
878.928	11377.50	17.95
879.501	11370.08	5.658
880.074	11362.68	8.256
880.647	11355.29	7.658
881.220	11347.90	10.25
881.793	11340.53	4.563
882.366	11333.16	12.04
882.939	11325.80	0.2787
883.513	11318.46	15.54
884.086	11311.12	16.96
884.659	11303.79	2.174
885.232	11296.48	2.656
885.805	11289.17	5.454
886.378	11281.87	-1.541
886.951	11274.58	7.755
887.524	11267.30	2.355
888.097	11260.03	-5.242
888.670	11252.77	-1.244
889.243	11245.52	-0.3522
889.816	11238.27	-9.818
890.389	11231.04	12.54
890.963	11223.82	5.364
891.536	11216.60	9.55
892.109	11209.40	-4.226
892.682	11202.20	0.4515
893.255	11195.01	11.75
893.828	11187.84	6.159
894.401	11180.67	-5.641
894.974	11173.51	16.96
895.547	11166.36	-2.044
896.120	11159.22	0.06309
896.693	11152.09	12.16
897.266	11144.96	10.94
897.839	11137.85	-4.416
898.412	11130.74	15.42
898.986	11123.65	-2.316
899.559	11116.56	10.64
900.132	11109.49	5.861
900.705	11102.42	-12.03
901.278	11095.36	-16.84
901.851	11088.31	-2.548
902.424	11081.27	22.75
902.997	11074.23	12.16
903.570	11067.21	-2.241
904.143	11060.19	3.758
904.716	11053.19	6.552
905.289	11046.19	2.443
905.862	11039.20	-7.639
906.436	11032.22	-4.648
907.009	11025.25	-6.741
907.582	11018.29	-17.13
908.155	11011.34	-13.15
908.728	11004.39	-15.74
909.301	10997.46	7.748
909.874	10990.53	21.95
910.447	10983.61	3.857
911.020	10976.71	7.664
911.593	10969.80	24.52
912.166	10962.91	-12.72
912.739	10956.03	13.85
913.312	10949.16	6.852
913.886	10942.29	3.95
914.459	10935.43	-5.43
915.032	10928.58	17.33
915.605	10921.74	-4.324
916.178	10914.91	-8.641
916.751	10908.09	-6.444
917.324	10901.27	5.755
917.897	10894.47	14.26
918.470	10887.67	-11.04
919.043	10880.88	6.456
919.616	10874.10	6.76
920.189	10867.33	11.17
920.762	10860.56	20.66
921.336	10853.81	23.34
921.909	10847.06	16.07
922.482	10840.32	7.867
923.055	10833.59	15.95
923.628	10826.87	-0.7319
924.201	10820.16	14.55
924.774	10813.45	27.65
925.347	10806.76	15.26
925.920	10800.07	-22.04
926.493	10793.39	-6.032
927.066	10786.72	12.46
927.639	10780.05	17.44
928.212	10773.40	7.877
928.786	10766.75	22.53
929.359	10760.11	12.97
929.932	10753.48	0.6722
930.505	10746.86	19.04
931.078	10740.24	-3.726
931.651	10733.63	-1.644
932.224	10727.04	13.55
932.797	10720.45	-1.344
933.370	10713.86	-10.33
933.943	10707.29	15.46
934.516	10700.72	12.54
935.089	10694.17	-2.443
935.662	10687.62	-1.838
936.235	10681.07	2.363
936.809	10674.54	15.34
937.382	10668.01	6.568
937.955	10661.50	3.559
938.528	10654.99	7.952
939.101	10648.48	27.45
939.674	10641.99	15.56
940.247	10635.50	17.06
940.820	10629.02	4.059
941.393	10622.55	13.64
941.966	10616.09	-14.23
942.539	10609.64	9.551
943.112	10603.19	5.063
943.685	10596.75	10.54
944.259	10590.32	2.197
944.832	10583.90	36.91
945.405	10577.48	5.792
945.978	10571.07	8.754
946.551	10564.67	10.66
947.124	10558.28	4.759
947.697	10551.90	24.55
948.270	10545.52	-0.6426
948.843	10539.15	5.855
949.416	10532.79	2.554
949.989	10526.43	-0.1407
950.562	10520.09	3.062
951.135	10513.75	8.041
951.709	10507.42	-2.337
952.282	10501.10	-5.739
952.855	10494.78	-7.841
953.428	10488.47	4.445
954.001	10482.17	-0.3406
954.574	10475.88	2.855
955.147	10469.59	8.755
955.720	10463.31	11.36
956.293	10457.04	15.75
956.866	10450.78	1.851
957.439	10444.53	-5.433
958.012	10438.28	7.175
958.585	10432.04	23.1
959.159	10425.81	-12.21
959.732	10419.58	-7.052
960.305	10413.36	27.01
960.878	10407.15	19.06
961.451	10400.95	-4.427
962.024	10394.75	-10.84
962.597	10388.56	16.85
963.170	10382.38	7.456
963.743	10376.21	2.758
964.316	10370.04	9.456
964.889	10363.88	9.465
965.462	10357.73	18.85
966.035	10351.59	12.75
966.609	10345.45	6.859
967.182	10339.32	2.963
967.755	10333.20	1.958
968.328	10327.08	13.34
968.901	10320.97	20.35
969.474	10314.87	-2.831
970.047	10308.78	-0.7442
970.620	10302.69	7.155
971.193	10296.61	-5.844
971.766	10290.54	-3.342
972.339	10284.48	0.7624
972.912	10278.42	8.429
973.485	10272.37	-16.81
974.058	10266.32	12.91
974.632	10260.29	-6.812
975.205	10254.26	21.42
975.778	10248.24	13.46
976.351	10242.22	14.36
976.924	10236.21	-0.5353
977.497	10230.21	12.35
978.070	10224.22	24.26
978.643	10218.23	17.56
979.216	10212.25	9.653
979.789	10206.28	3.961
980.362	10200.31	10.06
980.935	10194.35	14.66
981.508	10188.40	19.85
982.082	10182.45	17.26
982.655	10176.52	18.36
983.228	10170.58	1.276
983.801	10164.66	13.45
984.374	10158.74	18.35
984.947	10152.83	10.96
985.520	10146.93	5.757
986.093	10141.03	11.76
986.666	10135.14	7.066
987.239	10129.26	27.74
987.812	10123.38	8.878
988.385	10117.51	31.44
988.958	10111.65	16.68
989.532	10105.79	31.03
990.105	10099.94	24.46
990.678	10094.10	34.64
991.251	10088.26	38.65
991.824	10082.44	33.26
992.397	10076.61	14.16
992.970	10070.80	-4.641
993.543	10064.99	6.259
994.116	10059.19	34.86
994.689	10053.39	32.86
995.262	10047.60	29.56
995.835	10041.82	29.66
996.408	10036.05	34.94
996.982	10030.28	23.88
997.555	10024.51	31.64
998.128	10018.76	44.64
998.701	10013.01	13.18
999.274	10007.27	35.14
999.847	10001.53	40.75
1000.420	9995.80	17.26
1000.993	9990.08	31.06
1001.566	9984.36	26.96
1002.139	9978.65	41.06
1002.712	9972.95	40.86
1003.285	9967.25	48.15
1003.858	9961.56	43.04
1004.432	9955.88	35.26
1005.005	9950.20	30.66
1005.578	9944.53	23.16
1006.151	9938.87	30.85
1006.724	9933.21	22.06
1007.297	9927.56	26.25
1007.870	9921.91	19.96
1008.443	9916.28	20.26
1009.016	9910.64	20.96
1009.589	9905.02	16.26
1010.162	9899.40	30.35
1010.735	9893.79	22.87
1011.308	9888.18	34
1011.881	9882.58	-1.978
1012.455	9876.99	31.54
1013.028	9871.40	36.65
1013.601	9865.82	14.38
1014.174	9860.24	12.46
1014.747	9854.67	16.55
1015.320	9849.11	35.95
1015.893	9843.56	22.56
1016.466	9838.01	19.96
1017.039	9832.46	35.56
1017.612	9826.93	43.94
1018.185	9821.39	14.46
1018.758	9815.87	13.37
1019.331	9810.35	28.64
1019.905	9804.84	24.46
1020.478	9799.33	20.56
1021.051	9793.83	37.24
1021.624	9788.34	39.26
1022.197	9782.85	18.47
1022.770	9777.37	15.36
1023.343	9771.89	17.36
1023.916	9766.43	19.26
1024.489	9760.96	36.84
1025.062	9755.51	15.45
1025.635	9750.05	7.263
1026.208	9744.61	14.46
1026.781	9739.17	21.25
1027.355	9733.74	24.26
1027.928	9728.31	32.44
1028.501	9722.89	26.56
1029.074	9717.48	16.46
1029.647	9712.07	19.95
1030.220	9706.67	21.06
1030.793	9701.27	32.25
1031.366	9695.88	27.16
1031.939	9690.49	15.97
1032.512	9685.12	48.24
1033.085	9679.74	17.06
1033.658	9674.38	26.05
1034.231	9669.02	22.56
1034.805	9663.66	16.76
1035.378	9658.31	15.36
1035.951	9652.97	20.35
1036.524	9647.63	17.56
1037.097	9642.30	20.55
1037.670	9636.98	6.762
1038.243	9631.66	17.85
1038.816	9626.34	22.46
1039.389	9621.04	16.85
1039.962	9615.73	2.453
1040.535	9610.44	-2.924
1041.108	9605.15	20.84
1041.681	9599.86	5.673
1042.255	9594.59	17.93
1042.828	9589.31	6.474
1043.401	9584.05	21.14
1043.974	9578.79	12.06
1044.547	9573.53	-1.532
1045.120	9568.28	10.05
1045.693	9563.04	10.86
1046.266	9557.80	10.76
1046.839	9552.57	-0.3439
1047.412	9547.34	-1.04
1047.985	9542.12	5.86
1048.558	9536.90	11.06
1049.131	9531.69	13.06
1049.704	9526.49	18.75
1050.278	9521.29	23.24
1050.851	9516.10	12.37
1051.424	9510.91	18.05
1051.997	9505.73	23.65
1052.570	9500.56	1.369
1053.143	9495.39	2.856
1053.716	9490.22	-12.84
1054.289	9485.06	27.36
1054.862	9479.91	5.458
1055.435	9474.76	9.17
1056.008	9469.62	28.45
1056.581	9464.49	25.34
1057.154	9459.36	17.06
1057.728	9454.23	14.26
1058.301	9449.11	10.76
1058.874	9444.00	9.758
1059.447	9438.89	9.057
1060.020	9433.79	21.95
1060.593	9428.69	30.45
1061.166	9423.60	14.66
1061.739	9418.51	16.46
1062.312	9413.43	26.26
1062.885	9408.35	17.94
1063.458	9403.28	4.667
1064.031	9398.22	15.69
1064.604	9393.16	48.09
1065.178	9388.11	14.7
1065.751	9383.06	24.24
1066.324	9378.02	21.66
1066.897	9372.98	19.46
1067.470	9367.95	27.65
1068.043	9362.92	19.36
1068.616	9357.90	16.26
1069.189	9352.88	19.36
1069.762	9347.87	17.26
1070.335	9342.87	12.06
1070.908	9337.87	11.66
1071.481	9332.87	13.15
1072.054	9327.88	8.663
1072.628	9322.90	11.16
1073.201	9317.92	23.14
1073.774	9312.95	45.73
1074.347	9307.98	31.57
1074.920	9303.02	33.86
1075.493	9298.06	27.16
1076.066	9293.11	28.06
1076.639	9288.16	32.56
1077.212	9283.22	23.56
1077.785	9278.29	21.66
1078.358	9273.36	32.65
1078.931	9268.43	23.86
1079.504	9263.51	23.76
1080.078	9258.59	23.06
1080.651	9253.68	22.56
1081.224	9248.78	52.71
1081.797	9243.88	23.58
1082.370	9238.99	12.76
1082.943	9234.10	22.55
1083.516	9229.21	33.25
1084.089	9224.33	24.06
1084.662	9219.46	21.66
1085.235	9214.59	20.16
1085.808	9209.73	27.96
1086.381	9204.87	29.97
1086.954	9200.02	40.83
1087.527	9195.17	30.37
1088.101	9190.33	34.25
1088.674	9185.49	29.56
1089.247	9180.66	24.06
1089.820	9175.83	5.173
1090.393	9171.01	33.14
1090.966	9166.19	40.65
1091.539	9161.38	14.36
1092.112	9156.57	15.76
1092.685	9151.77	30.54
1093.258	9146.97	8.859
1093.831	9142.18	13.06
1094.404	9137.39	17.46
1094.977	9132.61	16.96
1095.551	9127.83	19.85
1096.124	9123.06	18.06
1096.697	9118.29	20.15
1097.270	9113.53	31.05
1097.843	9108.77	25.16
1098.416	9104.02	8.163
